"Mach","Pressure","p","x","vtkValidPointMask","arc_length","Points:0","Points:1","Points:2"
0.2247,8.6065e+06,0.95627,-1.2462,1,0,-8.1,0,0
0.22548,8.6025e+06,0.95583,-1.2349,1,0.0731,-8.0269,0,0
0.22627,8.5985e+06,0.95539,-1.2237,1,0.1462,-7.9538,0,0
0.22705,8.5945e+06,0.95494,-1.2124,1,0.2193,-7.8807,0,0
0.22783,8.5905e+06,0.9545,-1.2012,1,0.2924,-7.8076,0,0
0.22861,8.5865e+06,0.95405,-1.1899,1,0.3655,-7.7345,0,0
0.2294,8.5825e+06,0.95361,-1.1787,1,0.4386,-7.6614,0,0
0.23033,8.5779e+06,0.9531,-1.1674,1,0.5117,-7.5883,0,0
0.23199,8.5708e+06,0.95231,-1.1562,1,0.5848,-7.5152,0,0
0.23364,8.5637e+06,0.95152,-1.1449,1,0.6579,-7.4421,0,0
0.2353,8.5566e+06,0.95073,-1.1337,1,0.731,-7.369,0,0
0.23696,8.5494e+06,0.94994,-1.1224,1,0.8041,-7.2959,0,0
0.23862,8.5423e+06,0.94914,-1.1112,1,0.8772,-7.2228,0,0
0.24028,8.5352e+06,0.94835,-1.1,1,0.9503,-7.1497,0,0
0.24227,8.5266e+06,0.9474,-1.0887,1,1.0234,-7.0766,0,0
0.24503,8.5146e+06,0.94607,-1.0775,1,1.0965,-7.0035,0,0
0.2478,8.5026e+06,0.94474,-1.0662,1,1.1696,-6.9304,0,0
0.25056,8.4906e+06,0.94341,-1.055,1,1.2427,-6.8573,0,0
0.25332,8.4787e+06,0.94207,-1.0437,1,1.3158,-6.7842,0,0
0.25609,8.4667e+06,0.94074,-1.0325,1,1.3889,-6.7111,0,0
0.25885,8.4547e+06,0.93941,-1.0212,1,1.462,-6.638,0,0
0.26213,8.4405e+06,0.93784,-1.01,1,1.5351,-6.5649,0,0
0.26617,8.4231e+06,0.9359,-0.99874,1,1.6082,-6.4918,0,0
0.27021,8.4057e+06,0.93396,-0.98749,1,1.6813,-6.4187,0,0
0.27425,8.3882e+06,0.93203,-0.97625,1,1.7544,-6.3456,0,0
0.27828,8.3708e+06,0.93009,-0.965,1,1.8275,-6.2725,0,0
0.28232,8.3534e+06,0.92815,-0.95375,1,1.9006,-6.1994,0,0
0.28636,8.3359e+06,0.92621,-0.94251,1,1.9737,-6.1263,0,0
0.29102,8.3152e+06,0.92391,-0.93126,1,2.0468,-6.0532,0,0
0.29647,8.2903e+06,0.92114,-0.92002,1,2.1199,-5.9801,0,0
0.30193,8.2653e+06,0.91837,-0.90877,1,2.193,-5.907,0,0
0.30738,8.2404e+06,0.9156,-0.89752,1,2.2661,-5.8339,0,0
0.31284,8.2154e+06,0.91282,-0.88628,1,2.3392,-5.7608,0,0
0.31829,8.1905e+06,0.91005,-0.87503,1,2.4123,-5.6877,0,0
0.32375,8.1655e+06,0.90728,-0.86378,1,2.4854,-5.6146,0,0
0.32977,8.1367e+06,0.90408,-0.85254,1,2.5585,-5.5415,0,0
0.33656,8.1028e+06,0.90031,-0.84129,1,2.6316,-5.4684,0,0
0.34335,8.0689e+06,0.89655,-0.83005,1,2.7047,-5.3953,0,0
0.35014,8.035e+06,0.89278,-0.8188,1,2.7778,-5.3222,0,0
0.35693,8.0011e+06,0.88901,-0.80755,1,2.8509,-5.2491,0,0
0.36372,7.9672e+06,0.88524,-0.79631,1,2.924,-5.176,0,0
0.37051,7.9333e+06,0.88148,-0.78506,1,2.9971,-5.1029,0,0
0.37799,7.896e+06,0.87733,-0.77382,1,3.0702,-5.0298,0,0
0.38662,7.8531e+06,0.87257,-0.76257,1,3.1433,-4.9567,0,0
0.39525,7.8102e+06,0.8678,-0.75132,1,3.2164,-4.8836,0,0
0.40388,7.7674e+06,0.86304,-0.74008,1,3.2895,-4.8105,0,0
0.41251,7.7245e+06,0.85828,-0.72883,1,3.3626,-4.7374,0,0
0.42114,7.6816e+06,0.85351,-0.71758,1,3.4357,-4.6643,0,0
0.42977,7.6388e+06,0.84875,-0.70634,1,3.5088,-4.5912,0,0
0.43902,7.5908e+06,0.84342,-0.69509,1,3.5819,-4.5181,0,0
0.4499,7.5294e+06,0.8366,-0.68385,1,3.655,-4.445,0,0
0.46079,7.468e+06,0.82978,-0.6726,1,3.7281,-4.3719,0,0
0.47167,7.4066e+06,0.82296,-0.66135,1,3.8012,-4.2988,0,0
0.48255,7.3452e+06,0.81614,-0.65011,1,3.8743,-4.2257,0,0
0.49343,7.2838e+06,0.80932,-0.63886,1,3.9474,-4.1526,0,0
0.50431,7.2224e+06,0.80249,-0.62762,1,4.0205,-4.0795,0,0
0.51535,7.1599e+06,0.79555,-0.61637,1,4.0936,-4.0064,0,0
0.52756,7.0891e+06,0.78767,-0.60512,1,4.1667,-3.9333,0,0
0.53977,7.0182e+06,0.7798,-0.59388,1,4.2398,-3.8602,0,0
0.55198,6.9473e+06,0.77193,-0.58263,1,4.3129,-3.7871,0,0
0.56419,6.8765e+06,0.76405,-0.57138,1,4.386,-3.714,0,0
0.5764,6.8056e+06,0.75618,-0.56014,1,4.4591,-3.6409,0,0
0.58861,6.7348e+06,0.74831,-0.54889,1,4.5322,-3.5678,0,0
0.60082,6.6639e+06,0.74043,-0.53765,1,4.6053,-3.4947,0,0
0.61445,6.5845e+06,0.73161,-0.5264,1,4.6784,-3.4216,0,0
0.62821,6.5043e+06,0.7227,-0.51515,1,4.7515,-3.3485,0,0
0.64196,6.4242e+06,0.7138,-0.50391,1,4.8246,-3.2754,0,0
0.65572,6.344e+06,0.70489,-0.49266,1,4.8977,-3.2023,0,0
0.66947,6.2639e+06,0.69599,-0.48142,1,4.9708,-3.1292,0,0
0.68322,6.1837e+06,0.68708,-0.47017,1,5.0439,-3.0561,0,0
0.69698,6.1036e+06,0.67817,-0.45892,1,5.117,-2.983,0,0
0.71181,6.0183e+06,0.6687,-0.44768,1,5.1901,-2.9099,0,0
0.72715,5.9306e+06,0.65896,-0.43643,1,5.2632,-2.8368,0,0
0.74249,5.8429e+06,0.64922,-0.42518,1,5.3363,-2.7637,0,0
0.75783,5.7553e+06,0.63947,-0.41394,1,5.4094,-2.6906,0,0
0.77317,5.6676e+06,0.62973,-0.40269,1,5.4825,-2.6175,0,0
0.78851,5.5799e+06,0.61999,-0.39145,1,5.5556,-2.5444,0,0
0.80385,5.4922e+06,0.61025,-0.3802,1,5.6287,-2.4713,0,0
0.81964,5.4038e+06,0.60042,-0.36895,1,5.7018,-2.3982,0,0
0.8362,5.3141e+06,0.59045,-0.35771,1,5.7749,-2.3251,0,0
0.85276,5.2243e+06,0.58048,-0.34646,1,5.848,-2.252,0,0
0.86932,5.1346e+06,0.57051,-0.33522,1,5.9211,-2.1789,0,0
0.88588,5.0449e+06,0.56054,-0.32397,1,5.9942,-2.1058,0,0
0.90244,4.9552e+06,0.55057,-0.31272,1,6.0673,-2.0327,0,0
0.919,4.8654e+06,0.5406,-0.30148,1,6.1404,-1.9596,0,0
0.93558,4.7757e+06,0.53064,-0.29023,1,6.2135,-1.8865,0,0
0.95312,4.6877e+06,0.52086,-0.27898,1,6.2866,-1.8134,0,0
0.97066,4.5997e+06,0.51108,-0.26774,1,6.3597,-1.7403,0,0
0.9882,4.5117e+06,0.5013,-0.25649,1,6.4328,-1.6672,0,0
1.0057,4.4236e+06,0.49152,-0.24525,1,6.5059,-1.5941,0,0
1.0233,4.3356e+06,0.48173,-0.234,1,6.579,-1.521,0,0
1.0408,4.2476e+06,0.47195,-0.22275,1,6.6521,-1.4479,0,0
1.0584,4.1596e+06,0.46217,-0.21151,1,6.7252,-1.3748,0,0
1.0767,4.0751e+06,0.45279,-0.20026,1,6.7983,-1.3017,0,0
1.0954,3.9927e+06,0.44364,-0.18902,1,6.8714,-1.2286,0,0
1.1142,3.9104e+06,0.43449,-0.17777,1,6.9445,-1.1555,0,0
1.1329,3.828e+06,0.42533,-0.16652,1,7.0176,-1.0824,0,0
1.1517,3.7456e+06,0.41618,-0.15528,1,7.0907,-1.0093,0,0
1.1705,3.6633e+06,0.40703,-0.14403,1,7.1638,-0.9362,0,0
1.1892,3.5809e+06,0.39788,-0.13278,1,7.2369,-0.8631,0,0
1.2083,3.499e+06,0.38877,-0.12154,1,7.31,-0.79,0,0
1.2288,3.419e+06,0.37989,-0.11029,1,7.3831,-0.7169,0,0
1.2492,3.339e+06,0.371,-0.099046,1,7.4562,-0.6438,0,0
1.2697,3.259e+06,0.36212,-0.0878,1,7.5293,-0.5707,0,0
1.2902,3.1791e+06,0.35323,-0.076554,1,7.6024,-0.4976,0,0
1.3106,3.0991e+06,0.34434,-0.065308,1,7.6755,-0.4245,0,0
1.3311,3.0191e+06,0.33546,-0.054062,1,7.7486,-0.3514,0,0
1.3516,2.9391e+06,0.32657,-0.042815,1,7.8217,-0.2783,0,0
1.3721,2.8666e+06,0.31851,-0.031569,1,7.8948,-0.2052,0,0
1.3927,2.7976e+06,0.31084,-0.020323,1,7.9679,-0.1321,0,0
1.4133,2.7286e+06,0.30318,-0.009077,1,8.041,-0.059,0,0
1.4339,2.6596e+06,0.29551,0.0021692,1,8.1141,0.0141,0,0
1.4545,2.5905e+06,0.28784,0.013415,1,8.1872,0.0872,0,0
1.4752,2.5215e+06,0.28017,0.024661,1,8.2603,0.1603,0,0
1.4958,2.4525e+06,0.2725,0.035908,1,8.3334,0.2334,0,0
1.5161,2.3854e+06,0.26504,0.047154,1,8.4065,0.3065,0,0
1.535,2.3309e+06,0.25899,0.0584,1,8.4796,0.3796,0,0
1.5539,2.2765e+06,0.25294,0.069646,1,8.5527,0.4527,0,0
1.5728,2.222e+06,0.24689,0.080892,1,8.6258,0.5258,0,0
1.5917,2.1675e+06,0.24084,0.092138,1,8.6989,0.5989,0,0
1.6106,2.1131e+06,0.23479,0.10338,1,8.772,0.672,0,0
1.6295,2.0586e+06,0.22873,0.11463,1,8.8451,0.7451,0,0
1.6484,2.0041e+06,0.22268,0.12588,1,8.9182,0.8182,0,0
1.6663,1.9573e+06,0.21747,0.13712,1,8.9913,0.8913,0,0
1.6833,1.917e+06,0.213,0.14837,1,9.0644,0.9644,0,0
1.7003,1.8768e+06,0.20853,0.15962,1,9.1375,1.0375,0,0
1.7173,1.8365e+06,0.20406,0.17086,1,9.2106,1.1106,0,0
1.7344,1.7963e+06,0.19959,0.18211,1,9.2837,1.1837,0,0
1.7514,1.756e+06,0.19512,0.19335,1,9.3568,1.2568,0,0
1.7684,1.7158e+06,0.19064,0.2046,1,9.4299,1.3299,0,0
1.7854,1.6756e+06,0.18617,0.21585,1,9.503,1.403,0,0
1.8018,1.6389e+06,0.1821,0.22709,1,9.5761,1.4761,0,0
1.8182,1.6027e+06,0.17808,0.23834,1,9.6492,1.5492,0,0
1.8346,1.5665e+06,0.17406,0.24958,1,9.7223,1.6223,0,0
1.8509,1.5305e+06,0.17006,0.26083,1,9.7954,1.6954,0,0
1.8645,1.5025e+06,0.16694,0.27208,1,9.8685,1.7685,0,0
1.8782,1.4744e+06,0.16382,0.28332,1,9.9416,1.8416,0,0
1.8918,1.4463e+06,0.1607,0.29457,1,10.015,1.9147,0,0
1.9053,1.419e+06,0.15767,0.30582,1,10.088,1.9878,0,0
1.9176,1.3959e+06,0.1551,0.31706,1,10.161,2.0609,0,0
1.93,1.3727e+06,0.15253,0.32831,1,10.234,2.134,0,0
1.9424,1.3496e+06,0.14995,0.33955,1,10.307,2.2071,0,0
1.9542,1.3277e+06,0.14752,0.3508,1,10.38,2.2802,0,0
1.9646,1.309e+06,0.14545,0.36205,1,10.453,2.3533,0,0
1.9749,1.2904e+06,0.14337,0.37329,1,10.526,2.4264,0,0
1.9853,1.2717e+06,0.1413,0.38454,1,10.599,2.4995,0,0
1.9946,1.2552e+06,0.13946,0.39578,1,10.673,2.5726,0,0
2.0022,1.2417e+06,0.13797,0.40703,1,10.746,2.6457,0,0
2.0098,1.2283e+06,0.13648,0.41828,1,10.819,2.7188,0,0
2.0174,1.2149e+06,0.13499,0.42952,1,10.892,2.7919,0,0
2.0233,1.2043e+06,0.13381,0.44077,1,10.965,2.865,0,0
2.0276,1.1964e+06,0.13293,0.45202,1,11.038,2.9381,0,0
2.0319,1.1885e+06,0.13205,0.46326,1,11.111,3.0112,0,0
2.0362,1.1806e+06,0.13118,0.47451,1,11.184,3.0843,0,0
2.0391,1.1752e+06,0.13058,0.48575,1,11.257,3.1574,0,0
2.041,1.1714e+06,0.13016,0.497,1,11.33,3.2305,0,0
2.0429,1.1677e+06,0.12974,0.50825,1,11.404,3.3036,0,0
2.0448,1.1639e+06,0.12932,0.51949,1,11.477,3.3767,0,0
2.0464,1.1606e+06,0.12896,0.53074,1,11.55,3.4498,0,0
2.0479,1.1576e+06,0.12862,0.54198,1,11.623,3.5229,0,0
2.0493,1.1546e+06,0.12828,0.55323,1,11.696,3.596,0,0
2.0508,1.1515e+06,0.12795,0.56448,1,11.769,3.6691,0,0
2.0533,1.1472e+06,0.12747,0.57572,1,11.842,3.7422,0,0
2.0562,1.1425e+06,0.12694,0.58697,1,11.915,3.8153,0,0
2.0591,1.1377e+06,0.12641,0.59822,1,11.988,3.8884,0,0
2.0619,1.133e+06,0.12589,0.60946,1,12.062,3.9615,0,0
2.0659,1.1269e+06,0.12521,0.62071,1,12.135,4.0346,0,0
2.0702,1.1205e+06,0.1245,0.63195,1,12.208,4.1077,0,0
2.0746,1.114e+06,0.12378,0.6432,1,12.281,4.1808,0,0
2.0789,1.1076e+06,0.12306,0.65445,1,12.354,4.2539,0,0
2.0854,1.0971e+06,0.1219,0.66569,1,12.427,4.327,0,0
2.0924,1.0858e+06,0.12065,0.67694,1,12.5,4.4001,0,0
2.0994,1.0745e+06,0.11939,0.68818,1,12.573,4.4732,0,0
2.1064,1.0632e+06,0.11814,0.69943,1,12.646,4.5463,0,0
2.1142,1.0517e+06,0.11686,0.71068,1,12.719,4.6194,0,0
2.1221,1.0402e+06,0.11558,0.72192,1,12.792,4.6925,0,0
2.1301,1.0286e+06,0.11429,0.73317,1,12.866,4.7656,0,0
2.1381,1.0171e+06,0.11301,0.74442,1,12.939,4.8387,0,0
2.1488,1.0019e+06,0.11132,0.75566,1,13.012,4.9118,0,0
2.1601,9.8597e+05,0.10955,0.76691,1,13.085,4.9849,0,0
2.1713,9.7007e+05,0.10779,0.77815,1,13.158,5.058,0,0
2.1826,9.5417e+05,0.10602,0.7894,1,13.231,5.1311,0,0
2.1965,9.3576e+05,0.10397,0.80065,1,13.304,5.2042,0,0
2.211,9.1685e+05,0.10187,0.81189,1,13.377,5.2773,0,0
2.2254,8.9794e+05,0.099771,0.82314,1,13.45,5.3504,0,0
2.2399,8.7902e+05,0.097669,0.83438,1,13.524,5.4235,0,0
2.2561,8.5939e+05,0.095488,0.84563,1,13.597,5.4966,0,0
2.2728,8.396e+05,0.093288,0.85688,1,13.67,5.5697,0,0
2.2894,8.198e+05,0.091089,0.86812,1,13.743,5.6428,0,0
2.3061,8.0001e+05,0.08889,0.87937,1,13.816,5.7159,0,0
2.3227,7.8022e+05,0.086691,0.89062,1,13.889,5.789,0,0
2.3394,7.6043e+05,0.084492,0.90186,1,13.962,5.8621,0,0
2.356,7.4063e+05,0.082293,0.91311,1,14.035,5.9352,0,0
2.3727,7.2084e+05,0.080094,0.92435,1,14.108,6.0083,0,0
2.3898,7.0304e+05,0.078116,0.9356,1,14.181,6.0814,0,0
2.407,6.8594e+05,0.076216,0.94685,1,14.254,6.1545,0,0
2.4243,6.6884e+05,0.074315,0.95809,1,14.328,6.2276,0,0
2.4415,6.5173e+05,0.072415,0.96934,1,14.401,6.3007,0,0
2.4588,6.3463e+05,0.070515,0.98058,1,14.474,6.3738,0,0
2.476,6.1753e+05,0.068614,0.99183,1,14.547,6.4469,0,0
2.4933,6.0043e+05,0.066714,1.0031,1,14.62,6.52,0,0
2.5105,5.8332e+05,0.064814,1.0143,1,14.693,6.5931,0,0
2.5274,5.6842e+05,0.063157,1.0256,1,14.766,6.6662,0,0
2.544,5.5493e+05,0.061659,1.0368,1,14.839,6.7393,0,0
2.5606,5.4144e+05,0.06016,1.0481,1,14.912,6.8124,0,0
2.5772,5.2796e+05,0.058662,1.0593,1,14.986,6.8855,0,0
2.5938,5.1447e+05,0.057163,1.0706,1,15.059,6.9586,0,0
2.6105,5.0098e+05,0.055665,1.0818,1,15.132,7.0317,0,0
2.6271,4.875e+05,0.054166,1.093,1,15.205,7.1048,0,0
2.6437,4.7401e+05,0.052668,1.1043,1,15.278,7.1779,0,0
2.6601,4.6167e+05,0.051296,1.1155,1,15.351,7.251,0,0
2.676,4.5097e+05,0.050108,1.1268,1,15.424,7.3241,0,0
2.692,4.4027e+05,0.048919,1.138,1,15.497,7.3972,0,0
2.708,4.2957e+05,0.04773,1.1493,1,15.57,7.4703,0,0
2.724,4.1887e+05,0.046541,1.1605,1,15.643,7.5434,0,0
2.74,4.0817e+05,0.045352,1.1718,1,15.717,7.6165,0,0
2.756,3.9747e+05,0.044164,1.183,1,15.79,7.6896,0,0
2.772,3.8677e+05,0.042975,1.1943,1,15.863,7.7627,0,0
2.7879,3.7643e+05,0.041826,1.2055,1,15.936,7.8358,0,0
2.8032,3.6797e+05,0.040886,1.2168,1,16.009,7.9089,0,0
2.8185,3.5951e+05,0.039946,1.228,1,16.082,7.982,0,0
2.8339,3.5105e+05,0.039006,1.2392,1,16.155,8.0551,0,0
2.8492,3.4259e+05,0.038066,1.2505,1,16.228,8.1282,0,0
2.8645,3.3413e+05,0.037125,1.2617,1,16.301,8.2013,0,0
2.8799,3.2567e+05,0.036185,1.273,1,16.374,8.2744,0,0
2.8952,3.1721e+05,0.035245,1.2842,1,16.448,8.3475,0,0
2.9106,3.0875e+05,0.034305,1.2955,1,16.521,8.4206,0,0
2.9262,3.0161e+05,0.033512,1.3067,1,16.594,8.4937,0,0
2.9419,2.9469e+05,0.032743,1.318,1,16.667,8.5668,0,0
2.9576,2.8777e+05,0.031974,1.3292,1,16.74,8.6399,0,0
2.9733,2.8085e+05,0.031205,1.3405,1,16.813,8.713,0,0
2.989,2.7393e+05,0.030437,1.3517,1,16.886,8.7861,0,0
3.0047,2.6701e+05,0.029668,1.363,1,16.959,8.8592,0,0
3.0204,2.6009e+05,0.028899,1.3742,1,17.032,8.9323,0,0
3.0361,2.5317e+05,0.02813,1.3854,1,17.105,9.0054,0,0
3.0521,2.4677e+05,0.027419,1.3967,1,17.179,9.0785,0,0
3.0686,2.409e+05,0.026767,1.4079,1,17.252,9.1516,0,0
3.085,2.3503e+05,0.026114,1.4192,1,17.325,9.2247,0,0
3.1014,2.2916e+05,0.025462,1.4304,1,17.398,9.2978,0,0
3.1178,2.2329e+05,0.02481,1.4417,1,17.471,9.3709,0,0
3.1342,2.1741e+05,0.024157,1.4529,1,17.544,9.444,0,0
3.1507,2.1154e+05,0.023505,1.4642,1,17.617,9.5171,0,0
3.1671,2.0567e+05,0.022852,1.4754,1,17.69,9.5902,0,0
3.1837,1.9986e+05,0.022207,1.4867,1,17.763,9.6633,0,0
3.2021,1.9477e+05,0.021641,1.4979,1,17.836,9.7364,0,0
3.2204,1.8968e+05,0.021075,1.5092,1,17.91,9.8095,0,0
3.2388,1.8458e+05,0.020509,1.5204,1,17.983,9.8826,0,0
3.2571,1.7949e+05,0.019943,1.5316,1,18.056,9.9557,0,0
3.2755,1.744e+05,0.019377,1.5429,1,18.129,10.029,0,0
3.2939,1.693e+05,0.018811,1.5541,1,18.202,10.102,0,0
3.3122,1.6421e+05,0.018245,1.5654,1,18.275,10.175,0,0
3.3306,1.5911e+05,0.017679,1.5766,1,18.348,10.248,0,0
3.3496,1.5474e+05,0.017193,1.5879,1,18.421,10.321,0,0
3.3689,1.5083e+05,0.016758,1.5991,1,18.494,10.394,0,0
3.3883,1.4691e+05,0.016324,1.6104,1,18.567,10.467,0,0
3.4076,1.43e+05,0.015889,1.6216,1,18.64,10.54,0,0
3.427,1.3908e+05,0.015454,1.6329,1,18.714,10.614,0,0
3.4463,1.3517e+05,0.015019,1.6441,1,18.787,10.687,0,0
3.4657,1.3126e+05,0.014584,1.6554,1,18.86,10.76,0,0
3.485,1.2734e+05,0.014149,1.6666,1,18.933,10.833,0,0
3.5023,1.2364e+05,0.013738,1.6778,1,19.006,10.906,0,0
3.4935,1.2269e+05,0.013632,1.6891,1,19.079,10.979,0,0
3.4847,1.2173e+05,0.013526,1.7003,1,19.152,11.052,0,0
3.4759,1.2078e+05,0.01342,1.7116,1,19.225,11.125,0,0
3.4671,1.1982e+05,0.013314,1.7228,1,19.298,11.198,0,0
3.4583,1.1887e+05,0.013208,1.7341,1,19.372,11.271,0,0
3.4494,1.1792e+05,0.013102,1.7453,1,19.445,11.345,0,0
3.4406,1.1696e+05,0.012996,1.7566,1,19.518,11.418,0,0
3.4318,1.1601e+05,0.01289,1.7678,1,19.591,11.491,0,0
3.3276,1.3181e+05,0.014645,1.7791,1,19.664,11.564,0,0
3.1198,1.658e+05,0.018423,1.7903,1,19.737,11.637,0,0
2.912,1.998e+05,0.0222,1.8016,1,19.81,11.71,0,0
2.7043,2.3379e+05,0.025977,1.8128,1,19.883,11.783,0,0
2.4965,2.6779e+05,0.029754,1.824,1,19.956,11.856,0,0
2.2887,3.0178e+05,0.033531,1.8353,1,20.029,11.929,0,0
2.0809,3.3578e+05,0.037309,1.8465,1,20.103,12.002,0,0
1.8731,3.6977e+05,0.041086,1.8578,1,20.176,12.076,0,0
1.6654,4.0377e+05,0.044863,1.869,1,20.249,12.149,0,0
1.5577,5.1106e+05,0.056784,1.8803,1,20.322,12.222,0,0
1.4706,6.3338e+05,0.070375,1.8915,1,20.395,12.295,0,0
1.3835,7.557e+05,0.083966,1.9028,1,20.468,12.368,0,0
1.2964,8.7802e+05,0.097557,1.914,1,20.541,12.441,0,0
1.2093,1.0003e+06,0.11115,1.9253,1,20.614,12.514,0,0
1.1222,1.1227e+06,0.12474,1.9365,1,20.687,12.587,0,0
1.0352,1.245e+06,0.13833,1.9478,1,20.76,12.66,0,0
0.94806,1.3673e+06,0.15192,1.959,1,20.833,12.733,0,0
0.87116,1.4892e+06,0.16547,1.9702,1,20.907,12.807,0,0
0.86718,1.6086e+06,0.17873,1.9815,1,20.98,12.88,0,0
0.86319,1.7279e+06,0.19198,1.9927,1,21.053,12.953,0,0
0.8592,1.8472e+06,0.20524,2.004,1,21.126,13.026,0,0
0.85522,1.9665e+06,0.2185,2.0152,1,21.199,13.099,0,0
0.85123,2.0858e+06,0.23175,2.0265,1,21.272,13.172,0,0
0.84724,2.2051e+06,0.24501,2.0377,1,21.345,13.245,0,0
0.84326,2.3244e+06,0.25827,2.049,1,21.418,13.318,0,0
0.83927,2.4437e+06,0.27152,2.0602,1,21.491,13.391,0,0
0.83789,2.5274e+06,0.28082,2.0715,1,21.564,13.464,0,0
0.8412,2.547e+06,0.283,2.0827,1,21.638,13.538,0,0
0.84451,2.5666e+06,0.28518,2.094,1,21.711,13.611,0,0
0.84782,2.5862e+06,0.28736,2.1052,1,21.784,13.684,0,0
0.85113,2.6058e+06,0.28954,2.1164,1,21.857,13.757,0,0
0.85444,2.6254e+06,0.29171,2.1277,1,21.93,13.83,0,0
0.85775,2.645e+06,0.29389,2.1389,1,22.003,13.903,0,0
0.86106,2.6647e+06,0.29607,2.1502,1,22.076,13.976,0,0
0.86437,2.6843e+06,0.29825,2.1614,1,22.149,14.049,0,0
0.86881,2.6848e+06,0.29831,2.1727,1,22.222,14.122,0,0
0.87424,2.6687e+06,0.29652,2.1839,1,22.295,14.195,0,0
0.87966,2.6525e+06,0.29472,2.1952,1,22.369,14.269,0,0
0.88509,2.6364e+06,0.29293,2.2064,1,22.442,14.342,0,0
0.89052,2.6202e+06,0.29113,2.2177,1,22.515,14.415,0,0
0.89594,2.6041e+06,0.28934,2.2289,1,22.588,14.488,0,0
0.90137,2.5879e+06,0.28754,2.2402,1,22.661,14.561,0,0
0.90679,2.5718e+06,0.28575,2.2514,1,22.734,14.634,0,0
0.91222,2.5556e+06,0.28396,2.2626,1,22.807,14.707,0,0
0.91958,2.5324e+06,0.28137,2.2739,1,22.88,14.78,0,0
0.92801,2.5052e+06,0.27835,2.2851,1,22.953,14.853,0,0
0.93644,2.478e+06,0.27534,2.2964,1,23.027,14.926,0,0
0.94487,2.4509e+06,0.27232,2.3076,1,23.1,15,0,0
0.9533,2.4237e+06,0.2693,2.3189,1,23.173,15.073,0,0
0.96173,2.3965e+06,0.26628,2.3301,1,23.246,15.146,0,0
0.97016,2.3694e+06,0.26326,2.3414,1,23.319,15.219,0,0
0.97859,2.3422e+06,0.26025,2.3526,1,23.392,15.292,0,0
0.98702,2.315e+06,0.25723,2.3639,1,23.465,15.365,0,0
0.99451,2.2932e+06,0.2548,2.3751,1,23.538,15.438,0,0
1.0016,2.2737e+06,0.25264,2.3864,1,23.611,15.511,0,0
1.0087,2.2542e+06,0.25047,2.3976,1,23.684,15.584,0,0
1.0157,2.2348e+06,0.24831,2.4088,1,23.757,15.657,0,0
1.0228,2.2153e+06,0.24614,2.4201,1,23.831,15.731,0,0
1.0299,2.1958e+06,0.24398,2.4313,1,23.904,15.804,0,0
1.037,2.1763e+06,0.24181,2.4426,1,23.977,15.877,0,0
1.0441,2.1568e+06,0.23965,2.4538,1,24.05,15.95,0,0
1.0511,2.1374e+06,0.23749,2.4651,1,24.123,16.023,0,0
1.0569,2.1235e+06,0.23594,2.4763,1,24.196,16.096,0,0
1.0621,2.1122e+06,0.23469,2.4876,1,24.269,16.169,0,0
1.0672,2.1009e+06,0.23344,2.4988,1,24.342,16.242,0,0
1.0724,2.0897e+06,0.23219,2.5101,1,24.415,16.315,0,0
1.0776,2.0784e+06,0.23093,2.5213,1,24.489,16.389,0,0
1.0827,2.0671e+06,0.22968,2.5326,1,24.562,16.462,0,0
1.0879,2.0559e+06,0.22843,2.5438,1,24.635,16.535,0,0
1.0931,2.0446e+06,0.22718,2.555,1,24.708,16.608,0,0
1.0982,2.0333e+06,0.22592,2.5663,1,24.781,16.681,0,0
1.1033,2.0231e+06,0.22479,2.5775,1,24.854,16.754,0,0
1.1084,2.0137e+06,0.22374,2.5888,1,24.927,16.827,0,0
1.1135,2.0042e+06,0.22269,2.6,1,25,16.9,0,0
1.1185,1.9947e+06,0.22164,2.6113,1,25.073,16.973,0,0
1.1236,1.9853e+06,0.22059,2.6225,1,25.146,17.046,0,0
1.1287,1.9758e+06,0.21953,2.6338,1,25.219,17.119,0,0
1.1337,1.9663e+06,0.21848,2.645,1,25.293,17.193,0,0
1.1388,1.9569e+06,0.21743,2.6563,1,25.366,17.266,0,0
1.1439,1.9474e+06,0.21638,2.6675,1,25.439,17.339,0,0
1.1494,1.937e+06,0.21523,2.6788,1,25.512,17.412,0,0
1.1556,1.9256e+06,0.21396,2.69,1,25.585,17.485,0,0
1.1618,1.9142e+06,0.21269,2.7012,1,25.658,17.558,0,0
1.168,1.9028e+06,0.21143,2.7125,1,25.731,17.631,0,0
1.1742,1.8915e+06,0.21016,2.7237,1,25.804,17.704,0,0
1.1804,1.8801e+06,0.2089,2.735,1,25.877,17.777,0,0
1.1866,1.8687e+06,0.20763,2.7462,1,25.951,17.851,0,0
1.1928,1.8573e+06,0.20636,2.7575,1,26.024,17.924,0,0
1.199,1.8459e+06,0.2051,2.7687,1,26.097,17.997,0,0
1.2056,1.8335e+06,0.20372,2.78,1,26.17,18.07,0,0
1.2134,1.8185e+06,0.20206,2.7912,1,26.243,18.143,0,0
1.2212,1.8036e+06,0.2004,2.8025,1,26.316,18.216,0,0
1.2291,1.7886e+06,0.19874,2.8137,1,26.389,18.289,0,0
1.2369,1.7737e+06,0.19708,2.825,1,26.462,18.362,0,0
1.2447,1.7587e+06,0.19541,2.8362,1,26.535,18.435,0,0
1.2525,1.7438e+06,0.19375,2.8474,1,26.608,18.508,0,0
1.2603,1.7288e+06,0.19209,2.8587,1,26.681,18.581,0,0
1.2682,1.7139e+06,0.19043,2.8699,1,26.755,18.655,0,0
1.276,1.6988e+06,0.18876,2.8812,1,26.828,18.728,0,0
