"Mach","Pressure","p","x","vtkValidPointMask","arc_length","Points:0","Points:1","Points:2"
0.25308,7.7547e+05,0.96933,-1.2462,1,0,-8.1,0,0
0.25395,7.7522e+05,0.96903,-1.2349,1,0.0731,-8.0269,0,0
0.25482,7.7498e+05,0.96872,-1.2237,1,0.1462,-7.9538,0,0
0.25569,7.7473e+05,0.96842,-1.2124,1,0.2193,-7.8807,0,0
0.25657,7.7449e+05,0.96811,-1.2012,1,0.2924,-7.8076,0,0
0.25744,7.7424e+05,0.9678,-1.1899,1,0.3655,-7.7345,0,0
0.25831,7.74e+05,0.9675,-1.1787,1,0.4386,-7.6614,0,0
0.25935,7.7372e+05,0.96715,-1.1674,1,0.5117,-7.5883,0,0
0.26122,7.7326e+05,0.96658,-1.1562,1,0.5848,-7.5152,0,0
0.26309,7.7281e+05,0.96601,-1.1449,1,0.6579,-7.4421,0,0
0.26496,7.7235e+05,0.96544,-1.1337,1,0.731,-7.369,0,0
0.26683,7.719e+05,0.96487,-1.1224,1,0.8041,-7.2959,0,0
0.26869,7.7145e+05,0.96431,-1.1112,1,0.8772,-7.2228,0,0
0.27056,7.7099e+05,0.96374,-1.1,1,0.9503,-7.1497,0,0
0.2728,7.7044e+05,0.96305,-1.0887,1,1.0234,-7.0766,0,0
0.2759,7.6967e+05,0.96208,-1.0775,1,1.0965,-7.0035,0,0
0.27899,7.6889e+05,0.96112,-1.0662,1,1.1696,-6.9304,0,0
0.28209,7.6812e+05,0.96015,-1.055,1,1.2427,-6.8573,0,0
0.28518,7.6735e+05,0.95918,-1.0437,1,1.3158,-6.7842,0,0
0.28828,7.6657e+05,0.95821,-1.0325,1,1.3889,-6.7111,0,0
0.29137,7.658e+05,0.95725,-1.0212,1,1.462,-6.638,0,0
0.29501,7.6487e+05,0.95609,-1.01,1,1.5351,-6.5649,0,0
0.29947,7.6373e+05,0.95466,-0.99874,1,1.6082,-6.4918,0,0
0.30392,7.6258e+05,0.95323,-0.98749,1,1.6813,-6.4187,0,0
0.30837,7.6144e+05,0.9518,-0.97625,1,1.7544,-6.3456,0,0
0.31282,7.6029e+05,0.95036,-0.965,1,1.8275,-6.2725,0,0
0.31728,7.5915e+05,0.94893,-0.95375,1,1.9006,-6.1994,0,0
0.32173,7.58e+05,0.9475,-0.94251,1,1.9737,-6.1263,0,0
0.32682,7.5664e+05,0.9458,-0.93126,1,2.0468,-6.0532,0,0
0.33274,7.5502e+05,0.94377,-0.92002,1,2.1199,-5.9801,0,0
0.33865,7.5339e+05,0.94174,-0.90877,1,2.193,-5.907,0,0
0.34457,7.5176e+05,0.9397,-0.89752,1,2.2661,-5.8339,0,0
0.35049,7.5014e+05,0.93767,-0.88628,1,2.3392,-5.7608,0,0
0.3564,7.4851e+05,0.93564,-0.87503,1,2.4123,-5.6877,0,0
0.36232,7.4688e+05,0.9336,-0.86378,1,2.4854,-5.6146,0,0
0.3689,7.4499e+05,0.93124,-0.85254,1,2.5585,-5.5415,0,0
0.37638,7.4275e+05,0.92844,-0.84129,1,2.6316,-5.4684,0,0
0.38385,7.4051e+05,0.92564,-0.83005,1,2.7047,-5.3953,0,0
0.39133,7.3827e+05,0.92284,-0.8188,1,2.7778,-5.3222,0,0
0.3988,7.3603e+05,0.92004,-0.80755,1,2.8509,-5.2491,0,0
0.40628,7.3379e+05,0.91724,-0.79631,1,2.924,-5.176,0,0
0.41375,7.3155e+05,0.91444,-0.78506,1,2.9971,-5.1029,0,0
0.42187,7.2901e+05,0.91127,-0.77382,1,3.0702,-5.0298,0,0
0.43105,7.26e+05,0.9075,-0.76257,1,3.1433,-4.9567,0,0
0.44022,7.2298e+05,0.90373,-0.75132,1,3.2164,-4.8836,0,0
0.4494,7.1996e+05,0.89995,-0.74008,1,3.2895,-4.8105,0,0
0.45858,7.1695e+05,0.89618,-0.72883,1,3.3626,-4.7374,0,0
0.46776,7.1393e+05,0.89241,-0.71758,1,3.4357,-4.6643,0,0
0.47693,7.1091e+05,0.88864,-0.70634,1,3.5088,-4.5912,0,0
0.48658,7.0763e+05,0.88453,-0.69509,1,3.5819,-4.5181,0,0
0.49747,7.0363e+05,0.87954,-0.68385,1,3.655,-4.445,0,0
0.50836,6.9963e+05,0.87454,-0.6726,1,3.7281,-4.3719,0,0
0.51925,6.9564e+05,0.86955,-0.66135,1,3.8012,-4.2988,0,0
0.53014,6.9164e+05,0.86455,-0.65011,1,3.8743,-4.2257,0,0
0.54103,6.8764e+05,0.85955,-0.63886,1,3.9474,-4.1526,0,0
0.55193,6.8365e+05,0.85456,-0.62762,1,4.0205,-4.0795,0,0
0.56299,6.7952e+05,0.8494,-0.61637,1,4.0936,-4.0064,0,0
0.57538,6.7446e+05,0.84308,-0.60512,1,4.1667,-3.9333,0,0
0.58777,6.694e+05,0.83675,-0.59388,1,4.2398,-3.8602,0,0
0.60015,6.6434e+05,0.83043,-0.58263,1,4.3129,-3.7871,0,0
0.61254,6.5928e+05,0.8241,-0.57138,1,4.386,-3.714,0,0
0.62492,6.5422e+05,0.81778,-0.56014,1,4.4591,-3.6409,0,0
0.63731,6.4916e+05,0.81146,-0.54889,1,4.5322,-3.5678,0,0
0.6497,6.441e+05,0.80513,-0.53765,1,4.6053,-3.4947,0,0
0.66315,6.3816e+05,0.79771,-0.5264,1,4.6784,-3.4216,0,0
0.6767,6.3215e+05,0.79019,-0.51515,1,4.7515,-3.3485,0,0
0.69024,6.2614e+05,0.78267,-0.50391,1,4.8246,-3.2754,0,0
0.70378,6.2013e+05,0.77516,-0.49266,1,4.8977,-3.2023,0,0
0.71733,6.1411e+05,0.76764,-0.48142,1,4.9708,-3.1292,0,0
0.73087,6.081e+05,0.76012,-0.47017,1,5.0439,-3.0561,0,0
0.74442,6.0209e+05,0.75261,-0.45892,1,5.117,-2.983,0,0
0.75857,5.9554e+05,0.74443,-0.44768,1,5.1901,-2.9099,0,0
0.77301,5.8875e+05,0.73593,-0.43643,1,5.2632,-2.8368,0,0
0.78744,5.8195e+05,0.72744,-0.42518,1,5.3363,-2.7637,0,0
0.80188,5.7516e+05,0.71894,-0.41394,1,5.4094,-2.6906,0,0
0.81632,5.6836e+05,0.71045,-0.40269,1,5.4825,-2.6175,0,0
0.83075,5.6156e+05,0.70196,-0.39145,1,5.5556,-2.5444,0,0
0.84519,5.5477e+05,0.69346,-0.3802,1,5.6287,-2.4713,0,0
0.85991,5.4775e+05,0.68469,-0.36895,1,5.7018,-2.3982,0,0
0.87508,5.4036e+05,0.67545,-0.35771,1,5.7749,-2.3251,0,0
0.89026,5.3296e+05,0.6662,-0.34646,1,5.848,-2.252,0,0
0.90544,5.2557e+05,0.65696,-0.33522,1,5.9211,-2.1789,0,0
0.92062,5.1817e+05,0.64772,-0.32397,1,5.9942,-2.1058,0,0
0.9358,5.1078e+05,0.63847,-0.31272,1,6.0673,-2.0327,0,0
0.95098,5.0339e+05,0.62923,-0.30148,1,6.1404,-1.9596,0,0
0.96617,4.9598e+05,0.61998,-0.29023,1,6.2135,-1.8865,0,0
0.98183,4.8829e+05,0.61036,-0.27898,1,6.2866,-1.8134,0,0
0.9975,4.8059e+05,0.60074,-0.26774,1,6.3597,-1.7403,0,0
1.0132,4.7289e+05,0.59112,-0.25649,1,6.4328,-1.6672,0,0
1.0288,4.652e+05,0.5815,-0.24525,1,6.5059,-1.5941,0,0
1.0445,4.575e+05,0.57188,-0.234,1,6.579,-1.521,0,0
1.0602,4.498e+05,0.56226,-0.22275,1,6.6521,-1.4479,0,0
1.0758,4.4211e+05,0.55264,-0.21151,1,6.7252,-1.3748,0,0
1.0915,4.3454e+05,0.54317,-0.20026,1,6.7983,-1.3017,0,0
1.1071,4.2704e+05,0.5338,-0.18902,1,6.8714,-1.2286,0,0
1.1228,4.1955e+05,0.52443,-0.17777,1,6.9445,-1.1555,0,0
1.1384,4.1205e+05,0.51506,-0.16652,1,7.0176,-1.0824,0,0
1.1541,4.0455e+05,0.50569,-0.15528,1,7.0907,-1.0093,0,0
1.1697,3.9706e+05,0.49632,-0.14403,1,7.1638,-0.9362,0,0
1.1854,3.8956e+05,0.48695,-0.13278,1,7.2369,-0.8631,0,0
1.2009,3.8219e+05,0.47774,-0.12154,1,7.31,-0.79,0,0
1.2159,3.7536e+05,0.4692,-0.11029,1,7.3831,-0.7169,0,0
1.2309,3.6854e+05,0.46067,-0.099046,1,7.4562,-0.6438,0,0
1.2459,3.6171e+05,0.45213,-0.0878,1,7.5293,-0.5707,0,0
1.2609,3.5488e+05,0.4436,-0.076554,1,7.6024,-0.4976,0,0
1.276,3.4805e+05,0.43507,-0.065308,1,7.6755,-0.4245,0,0
1.291,3.4122e+05,0.42653,-0.054062,1,7.7486,-0.3514,0,0
1.306,3.344e+05,0.418,-0.042815,1,7.8217,-0.2783,0,0
1.3201,3.2823e+05,0.41029,-0.031569,1,7.8948,-0.2052,0,0
1.3338,3.2237e+05,0.40296,-0.020323,1,7.9679,-0.1321,0,0
1.3475,3.1651e+05,0.39564,-0.009077,1,8.041,-0.059,0,0
1.3611,3.1065e+05,0.38832,0.0021692,1,8.1141,0.0141,0,0
1.3748,3.048e+05,0.38099,0.013415,1,8.1872,0.0872,0,0
1.3885,2.9894e+05,0.37367,0.024661,1,8.2603,0.1603,0,0
1.4022,2.9308e+05,0.36635,0.035908,1,8.3334,0.2334,0,0
1.4156,2.8737e+05,0.35922,0.047154,1,8.4065,0.3065,0,0
1.4273,2.827e+05,0.35338,0.0584,1,8.4796,0.3796,0,0
1.4389,2.7803e+05,0.34753,0.069646,1,8.5527,0.4527,0,0
1.4505,2.7335e+05,0.34169,0.080892,1,8.6258,0.5258,0,0
1.4622,2.6868e+05,0.33585,0.092138,1,8.6989,0.5989,0,0
1.4738,2.64e+05,0.33,0.10338,1,8.772,0.672,0,0
1.4855,2.5933e+05,0.32416,0.11463,1,8.8451,0.7451,0,0
1.4971,2.5465e+05,0.31832,0.12588,1,8.9182,0.8182,0,0
1.5074,2.506e+05,0.31325,0.13712,1,8.9913,0.8913,0,0
1.5163,2.471e+05,0.30887,0.14837,1,9.0644,0.9644,0,0
1.5253,2.4359e+05,0.30449,0.15962,1,9.1375,1.0375,0,0
1.5342,2.4009e+05,0.30011,0.17086,1,9.2106,1.1106,0,0
1.5432,2.3659e+05,0.29573,0.18211,1,9.2837,1.1837,0,0
1.5521,2.3308e+05,0.29135,0.19335,1,9.3568,1.2568,0,0
1.5611,2.2958e+05,0.28697,0.2046,1,9.4299,1.3299,0,0
1.57,2.2607e+05,0.28259,0.21585,1,9.503,1.403,0,0
1.5769,2.2352e+05,0.27939,0.22709,1,9.5761,1.4761,0,0
1.5835,2.2108e+05,0.27636,0.23834,1,9.6492,1.5492,0,0
1.5901,2.1865e+05,0.27332,0.24958,1,9.7223,1.6223,0,0
1.5967,2.1622e+05,0.27028,0.26083,1,9.7954,1.6954,0,0
1.6033,2.1379e+05,0.26724,0.27208,1,9.8685,1.7685,0,0
1.6099,2.1136e+05,0.2642,0.28332,1,9.9416,1.8416,0,0
1.6165,2.0893e+05,0.26116,0.29457,1,10.015,1.9147,0,0
1.6228,2.066e+05,0.25825,0.30582,1,10.088,1.9878,0,0
1.6279,2.0475e+05,0.25594,0.31706,1,10.161,2.0609,0,0
1.6329,2.0291e+05,0.25363,0.32831,1,10.234,2.134,0,0
1.638,2.0106e+05,0.25132,0.33955,1,10.307,2.2071,0,0
1.643,1.9921e+05,0.24902,0.3508,1,10.38,2.2802,0,0
1.648,1.9737e+05,0.24671,0.36205,1,10.453,2.3533,0,0
1.6531,1.9552e+05,0.2444,0.37329,1,10.526,2.4264,0,0
1.6581,1.9367e+05,0.24209,0.38454,1,10.599,2.4995,0,0
1.6632,1.9189e+05,0.23986,0.39578,1,10.673,2.5726,0,0
1.6683,1.9019e+05,0.23774,0.40703,1,10.746,2.6457,0,0
1.6735,1.8849e+05,0.23562,0.41828,1,10.819,2.7188,0,0
1.6786,1.868e+05,0.2335,0.42952,1,10.892,2.7919,0,0
1.6837,1.851e+05,0.23137,0.44077,1,10.965,2.865,0,0
1.6889,1.834e+05,0.22925,0.45202,1,11.038,2.9381,0,0
1.694,1.8171e+05,0.22713,0.46326,1,11.111,3.0112,0,0
1.6991,1.8001e+05,0.22501,0.47451,1,11.184,3.0843,0,0
1.7055,1.7806e+05,0.22257,0.48575,1,11.257,3.1574,0,0
1.7126,1.7594e+05,0.21992,0.497,1,11.33,3.2305,0,0
1.7197,1.7381e+05,0.21727,0.50825,1,11.404,3.3036,0,0
1.7269,1.7169e+05,0.21462,0.51949,1,11.477,3.3767,0,0
1.734,1.6957e+05,0.21197,0.53074,1,11.55,3.4498,0,0
1.7411,1.6745e+05,0.20931,0.54198,1,11.623,3.5229,0,0
1.7482,1.6533e+05,0.20666,0.55323,1,11.696,3.596,0,0
1.7554,1.6321e+05,0.20401,0.56448,1,11.769,3.6691,0,0
1.7645,1.6067e+05,0.20083,0.57572,1,11.842,3.7422,0,0
1.7744,1.5797e+05,0.19747,0.58697,1,11.915,3.8153,0,0
1.7843,1.5528e+05,0.19411,0.59822,1,11.988,3.8884,0,0
1.7942,1.5259e+05,0.19074,0.60946,1,12.062,3.9615,0,0
1.804,1.499e+05,0.18738,0.62071,1,12.135,4.0346,0,0
1.8139,1.4721e+05,0.18401,0.63195,1,12.208,4.1077,0,0
1.8238,1.4452e+05,0.18065,0.6432,1,12.281,4.1808,0,0
1.8336,1.4183e+05,0.17729,0.65445,1,12.354,4.2539,0,0
1.8456,1.3892e+05,0.17365,0.66569,1,12.427,4.327,0,0
1.8579,1.3596e+05,0.16995,0.67694,1,12.5,4.4001,0,0
1.8703,1.33e+05,0.16625,0.68818,1,12.573,4.4732,0,0
1.8827,1.3004e+05,0.16255,0.69943,1,12.646,4.5463,0,0
1.895,1.2708e+05,0.15884,0.71068,1,12.719,4.6194,0,0
1.9074,1.2411e+05,0.15514,0.72192,1,12.792,4.6925,0,0
1.9198,1.2115e+05,0.15144,0.73317,1,12.866,4.7656,0,0
1.9322,1.1819e+05,0.14774,0.74442,1,12.939,4.8387,0,0
1.9461,1.152e+05,0.14401,0.75566,1,13.012,4.9118,0,0
1.9603,1.1221e+05,0.14026,0.76691,1,13.085,4.9849,0,0
1.9746,1.0922e+05,0.13652,0.77815,1,13.158,5.058,0,0
1.9888,1.0622e+05,0.13278,0.7894,1,13.231,5.1311,0,0
2.003,1.0323e+05,0.12904,0.80065,1,13.304,5.2042,0,0
2.0173,1.0024e+05,0.1253,0.81189,1,13.377,5.2773,0,0
2.0315,97244,0.12156,0.82314,1,13.45,5.3504,0,0
2.0457,94251,0.11781,0.83438,1,13.524,5.4235,0,0
2.0605,91593,0.11449,0.84563,1,13.597,5.4966,0,0
2.0753,89011,0.11126,0.85688,1,13.67,5.5697,0,0
2.0901,86429,0.10804,0.86812,1,13.743,5.6428,0,0
2.1049,83846,0.10481,0.87937,1,13.816,5.7159,0,0
2.1198,81264,0.10158,0.89062,1,13.889,5.789,0,0
2.1346,78682,0.098352,0.90186,1,13.962,5.8621,0,0
2.1494,76099,0.095124,0.91311,1,14.035,5.9352,0,0
2.1643,73517,0.091896,0.92435,1,14.108,6.0083,0,0
2.178,71470,0.089337,0.9356,1,14.181,6.0814,0,0
2.1912,69609,0.087012,0.94685,1,14.254,6.1545,0,0
2.2045,67749,0.084686,0.95809,1,14.328,6.2276,0,0
2.2178,65888,0.08236,0.96934,1,14.401,6.3007,0,0
2.2311,64027,0.080034,0.98058,1,14.474,6.3738,0,0
2.2444,62167,0.077708,0.99183,1,14.547,6.4469,0,0
2.2577,60306,0.075382,1.0031,1,14.62,6.52,0,0
2.2709,58445,0.073056,1.0143,1,14.693,6.5931,0,0
2.283,56928,0.07116,1.0256,1,14.766,6.6662,0,0
2.2943,55632,0.06954,1.0368,1,14.839,6.7393,0,0
2.3055,54336,0.06792,1.0481,1,14.912,6.8124,0,0
2.3168,53041,0.066301,1.0593,1,14.986,6.8855,0,0
2.328,51745,0.064681,1.0706,1,15.059,6.9586,0,0
2.3393,50449,0.063061,1.0818,1,15.132,7.0317,0,0
2.3505,49153,0.061442,1.093,1,15.205,7.1048,0,0
2.3618,47858,0.059822,1.1043,1,15.278,7.1779,0,0
2.3731,46692,0.058365,1.1155,1,15.351,7.251,0,0
2.3845,45713,0.057141,1.1268,1,15.424,7.3241,0,0
2.3958,44734,0.055918,1.138,1,15.497,7.3972,0,0
2.4072,43755,0.054694,1.1493,1,15.57,7.4703,0,0
2.4186,42776,0.05347,1.1605,1,15.643,7.5434,0,0
2.4299,41797,0.052247,1.1718,1,15.717,7.6165,0,0
2.4413,40818,0.051023,1.183,1,15.79,7.6896,0,0
2.4527,39839,0.049799,1.1943,1,15.863,7.7627,0,0
2.4641,38874,0.048593,1.2055,1,15.936,7.8358,0,0
2.476,37980,0.047474,1.2168,1,16.009,7.9089,0,0
2.4879,37085,0.046356,1.228,1,16.082,7.982,0,0
2.4998,36191,0.045238,1.2392,1,16.155,8.0551,0,0
2.5117,35299,0.044123,1.2505,1,16.228,8.1282,0,0
2.5157,34701,0.043376,1.2617,1,16.301,8.2013,0,0
2.5197,34104,0.042629,1.273,1,16.374,8.2744,0,0
2.5238,33506,0.041883,1.2842,1,16.448,8.3475,0,0
2.5278,32908,0.041136,1.2955,1,16.521,8.4206,0,0
2.5283,32742,0.040927,1.3067,1,16.594,8.4937,0,0
2.5282,32647,0.040809,1.318,1,16.667,8.5668,0,0
2.5281,32553,0.040691,1.3292,1,16.74,8.6399,0,0
2.528,32458,0.040573,1.3405,1,16.813,8.713,0,0
2.5245,32620,0.040776,1.3517,1,16.886,8.7861,0,0
2.5195,32905,0.041131,1.363,1,16.959,8.8592,0,0
2.5145,33190,0.041487,1.3742,1,17.032,8.9323,0,0
2.5094,33474,0.041843,1.3854,1,17.105,9.0054,0,0
2.4893,34536,0.04317,1.3967,1,17.179,9.0785,0,0
2.4541,36380,0.045474,1.4079,1,17.252,9.1516,0,0
2.419,38223,0.047779,1.4192,1,17.325,9.2247,0,0
2.3838,40066,0.050083,1.4304,1,17.398,9.2978,0,0
2.3182,44022,0.055027,1.4417,1,17.471,9.3709,0,0
2.1792,53085,0.066356,1.4529,1,17.544,9.444,0,0
2.0401,62148,0.077685,1.4642,1,17.617,9.5171,0,0
1.9011,71211,0.089014,1.4754,1,17.69,9.5902,0,0
1.7677,80894,0.10112,1.4867,1,17.763,9.6633,0,0
1.6935,97150,0.12144,1.4979,1,17.836,9.7364,0,0
1.6194,1.1341e+05,0.14176,1.5092,1,17.91,9.8095,0,0
1.5452,1.2966e+05,0.16208,1.5204,1,17.983,9.8826,0,0
1.4711,1.4592e+05,0.1824,1.5316,1,18.056,9.9557,0,0
1.3969,1.6217e+05,0.20272,1.5429,1,18.129,10.029,0,0
1.3228,1.7843e+05,0.22304,1.5541,1,18.202,10.102,0,0
1.2486,1.9468e+05,0.24336,1.5654,1,18.275,10.175,0,0
1.1745,2.1094e+05,0.26368,1.5766,1,18.348,10.248,0,0
1.139,2.2404e+05,0.28005,1.5879,1,18.421,10.321,0,0
1.1285,2.351e+05,0.29388,1.5991,1,18.494,10.394,0,0
1.1179,2.4617e+05,0.30772,1.6104,1,18.567,10.467,0,0
1.1074,2.5724e+05,0.32155,1.6216,1,18.64,10.54,0,0
1.0968,2.6831e+05,0.33539,1.6329,1,18.714,10.614,0,0
1.0863,2.7938e+05,0.34922,1.6441,1,18.787,10.687,0,0
1.0757,2.9044e+05,0.36306,1.6554,1,18.86,10.76,0,0
1.0652,3.0151e+05,0.37689,1.6666,1,18.933,10.833,0,0
1.0555,3.1188e+05,0.38986,1.6778,1,19.006,10.906,0,0
1.0566,3.1333e+05,0.39166,1.6891,1,19.079,10.979,0,0
1.0578,3.1478e+05,0.39347,1.7003,1,19.152,11.052,0,0
1.059,3.1622e+05,0.39528,1.7116,1,19.225,11.125,0,0
1.0601,3.1767e+05,0.39709,1.7228,1,19.298,11.198,0,0
1.0613,3.1911e+05,0.39889,1.7341,1,19.372,11.271,0,0
1.0625,3.2056e+05,0.4007,1.7453,1,19.445,11.345,0,0
1.0636,3.2201e+05,0.40251,1.7566,1,19.518,11.418,0,0
1.0648,3.2345e+05,0.40431,1.7678,1,19.591,11.491,0,0
1.0672,3.2349e+05,0.40436,1.7791,1,19.664,11.564,0,0
1.0708,3.22e+05,0.4025,1.7903,1,19.737,11.637,0,0
1.0745,3.205e+05,0.40063,1.8016,1,19.81,11.71,0,0
1.0781,3.1901e+05,0.39876,1.8128,1,19.883,11.783,0,0
1.0818,3.1752e+05,0.3969,1.824,1,19.956,11.856,0,0
1.0854,3.1603e+05,0.39503,1.8353,1,20.029,11.929,0,0
1.0891,3.1453e+05,0.39317,1.8465,1,20.103,12.002,0,0
1.0927,3.1304e+05,0.3913,1.8578,1,20.176,12.076,0,0
1.0964,3.1155e+05,0.38943,1.869,1,20.249,12.149,0,0
1.1019,3.0906e+05,0.38632,1.8803,1,20.322,12.222,0,0
1.1079,3.0636e+05,0.38295,1.8915,1,20.395,12.295,0,0
1.1139,3.0367e+05,0.37958,1.9028,1,20.468,12.368,0,0
1.1198,3.0097e+05,0.37621,1.914,1,20.541,12.441,0,0
1.1258,2.9828e+05,0.37285,1.9253,1,20.614,12.514,0,0
1.1318,2.9558e+05,0.36948,1.9365,1,20.687,12.587,0,0
1.1377,2.9289e+05,0.36611,1.9478,1,20.76,12.66,0,0
1.1437,2.9019e+05,0.36274,1.959,1,20.833,12.733,0,0
1.1496,2.8755e+05,0.35943,1.9702,1,20.907,12.807,0,0
1.1551,2.8527e+05,0.35658,1.9815,1,20.98,12.88,0,0
1.1606,2.8298e+05,0.35373,1.9927,1,21.053,12.953,0,0
1.1661,2.807e+05,0.35088,2.004,1,21.126,13.026,0,0
1.1716,2.7842e+05,0.34803,2.0152,1,21.199,13.099,0,0
1.1771,2.7614e+05,0.34517,2.0265,1,21.272,13.172,0,0
1.1826,2.7386e+05,0.34232,2.0377,1,21.345,13.245,0,0
1.1881,2.7158e+05,0.33947,2.049,1,21.418,13.318,0,0
1.1936,2.6929e+05,0.33662,2.0602,1,21.491,13.391,0,0
1.199,2.6719e+05,0.33399,2.0715,1,21.564,13.464,0,0
1.2042,2.6541e+05,0.33176,2.0827,1,21.638,13.538,0,0
1.2095,2.6362e+05,0.32953,2.094,1,21.711,13.611,0,0
1.2148,2.6184e+05,0.3273,2.1052,1,21.784,13.684,0,0
1.2201,2.6006e+05,0.32507,2.1164,1,21.857,13.757,0,0
1.2253,2.5828e+05,0.32284,2.1277,1,21.93,13.83,0,0
1.2306,2.5649e+05,0.32062,2.1389,1,22.003,13.903,0,0
1.2359,2.5471e+05,0.31839,2.1502,1,22.076,13.976,0,0
1.2412,2.5293e+05,0.31616,2.1614,1,22.149,14.049,0,0
1.2468,2.5111e+05,0.31388,2.1727,1,22.222,14.122,0,0
1.2528,2.4926e+05,0.31157,2.1839,1,22.295,14.195,0,0
1.2588,2.474e+05,0.30925,2.1952,1,22.369,14.269,0,0
1.2647,2.4555e+05,0.30694,2.2064,1,22.442,14.342,0,0
1.2707,2.437e+05,0.30462,2.2177,1,22.515,14.415,0,0
1.2767,2.4185e+05,0.30231,2.2289,1,22.588,14.488,0,0
1.2827,2.4e+05,0.29999,2.2402,1,22.661,14.561,0,0
1.2887,2.3814e+05,0.29768,2.2514,1,22.734,14.634,0,0
1.2947,2.3629e+05,0.29536,2.2626,1,22.807,14.707,0,0
1.3015,2.3423e+05,0.29278,2.2739,1,22.88,14.78,0,0
1.3088,2.3205e+05,0.29006,2.2851,1,22.953,14.853,0,0
1.3162,2.2987e+05,0.28733,2.2964,1,23.027,14.926,0,0
1.3235,2.2769e+05,0.28461,2.3076,1,23.1,15,0,0
1.3309,2.2551e+05,0.28188,2.3189,1,23.173,15.073,0,0
1.3382,2.2332e+05,0.27916,2.3301,1,23.246,15.146,0,0
1.3455,2.2114e+05,0.27643,2.3414,1,23.319,15.219,0,0
1.3529,2.1896e+05,0.2737,2.3526,1,23.392,15.292,0,0
1.3602,2.1678e+05,0.27098,2.3639,1,23.465,15.365,0,0
1.3686,2.1437e+05,0.26796,2.3751,1,23.538,15.438,0,0
1.3775,2.1185e+05,0.26482,2.3864,1,23.611,15.511,0,0
1.3863,2.0934e+05,0.26167,2.3976,1,23.684,15.584,0,0
1.3952,2.0682e+05,0.25853,2.4088,1,23.757,15.657,0,0
1.404,2.043e+05,0.25538,2.4201,1,23.831,15.731,0,0
1.4129,2.0179e+05,0.25223,2.4313,1,23.904,15.804,0,0
1.4218,1.9927e+05,0.24909,2.4426,1,23.977,15.877,0,0
1.4306,1.9675e+05,0.24594,2.4538,1,24.05,15.95,0,0
1.4395,1.9424e+05,0.2428,2.4651,1,24.123,16.023,0,0
1.4491,1.9163e+05,0.23954,2.4763,1,24.196,16.096,0,0
1.4591,1.8898e+05,0.23622,2.4876,1,24.269,16.169,0,0
1.4691,1.8632e+05,0.23291,2.4988,1,24.342,16.242,0,0
1.4792,1.8367e+05,0.22959,2.5101,1,24.415,16.315,0,0
1.4892,1.8102e+05,0.22627,2.5213,1,24.489,16.389,0,0
1.4992,1.7837e+05,0.22296,2.5326,1,24.562,16.462,0,0
1.5092,1.7572e+05,0.21964,2.5438,1,24.635,16.535,0,0
1.5192,1.7306e+05,0.21633,2.555,1,24.708,16.608,0,0
1.5292,1.7041e+05,0.21301,2.5663,1,24.781,16.681,0,0
1.5394,1.6783e+05,0.20979,2.5775,1,24.854,16.754,0,0
1.5498,1.6529e+05,0.20662,2.5888,1,24.927,16.827,0,0
1.5602,1.6276e+05,0.20345,2.6,1,25,16.9,0,0
1.5705,1.6022e+05,0.20028,2.6113,1,25.073,16.973,0,0
1.5809,1.5769e+05,0.19711,2.6225,1,25.146,17.046,0,0
1.5913,1.5515e+05,0.19394,2.6338,1,25.219,17.119,0,0
1.6016,1.5261e+05,0.19077,2.645,1,25.293,17.193,0,0
1.612,1.5008e+05,0.1876,2.6563,1,25.366,17.266,0,0
1.6224,1.4754e+05,0.18443,2.6675,1,25.439,17.339,0,0
1.6326,1.4515e+05,0.18144,2.6788,1,25.512,17.412,0,0
1.6426,1.4291e+05,0.17864,2.69,1,25.585,17.485,0,0
1.6526,1.4068e+05,0.17584,2.7012,1,25.658,17.558,0,0
1.6626,1.3844e+05,0.17305,2.7125,1,25.731,17.631,0,0
1.6726,1.362e+05,0.17025,2.7237,1,25.804,17.704,0,0
1.6826,1.3397e+05,0.16746,2.735,1,25.877,17.777,0,0
1.6927,1.3173e+05,0.16466,2.7462,1,25.951,17.851,0,0
1.7027,1.2949e+05,0.16187,2.7575,1,26.024,17.924,0,0
1.7127,1.2726e+05,0.15907,2.7687,1,26.097,17.997,0,0
1.7225,1.2512e+05,0.1564,2.78,1,26.17,18.07,0,0
1.7319,1.2325e+05,0.15406,2.7912,1,26.243,18.143,0,0
1.7413,1.2138e+05,0.15172,2.8025,1,26.316,18.216,0,0
1.7508,1.1951e+05,0.14938,2.8137,1,26.389,18.289,0,0
1.7602,1.1763e+05,0.14704,2.825,1,26.462,18.362,0,0
1.7696,1.1576e+05,0.1447,2.8362,1,26.535,18.435,0,0
1.779,1.1389e+05,0.14236,2.8474,1,26.608,18.508,0,0
1.7884,1.1202e+05,0.14002,2.8587,1,26.681,18.581,0,0
1.7978,1.1014e+05,0.13768,2.8699,1,26.755,18.655,0,0
1.8072,1.0828e+05,0.13535,2.8812,1,26.828,18.728,0,0
1.8159,1.0679e+05,0.13349,2.8924,1,26.901,18.801,0,0
1.8245,1.053e+05,0.13162,2.9037,1,26.974,18.874,0,0
1.8332,1.038e+05,0.12976,2.9149,1,27.047,18.947,0,0
1.8419,1.0231e+05,0.12789,2.9262,1,27.12,19.02,0,0
1.8505,1.0082e+05,0.12603,2.9374,1,27.193,19.093,0,0
1.8592,99329,0.12416,2.9487,1,27.266,19.166,0,0
1.8678,97837,0.1223,2.9599,1,27.339,19.239,0,0
1.8765,96346,0.12043,2.9712,1,27.413,19.312,0,0
