"Mach","Pressure","p","x","vtkValidPointMask","arc_length","Points:0","Points:1","Points:2"
0.22265,8.6052e+06,0.95613,-1.2462,1,0,-8.1,0,0
0.22352,8.6025e+06,0.95584,-1.2349,1,0.0731,-8.0269,0,0
0.22439,8.5999e+06,0.95554,-1.2237,1,0.1462,-7.9538,0,0
0.22526,8.5972e+06,0.95524,-1.2124,1,0.2193,-7.8807,0,0
0.22612,8.5945e+06,0.95495,-1.2012,1,0.2924,-7.8076,0,0
0.22699,8.5919e+06,0.95465,-1.1899,1,0.3655,-7.7345,0,0
0.22786,8.5892e+06,0.95436,-1.1787,1,0.4386,-7.6614,0,0
0.22887,8.5859e+06,0.95398,-1.1674,1,0.5117,-7.5883,0,0
0.23055,8.5791e+06,0.95323,-1.1562,1,0.5848,-7.5152,0,0
0.23224,8.5724e+06,0.95249,-1.1449,1,0.6579,-7.4421,0,0
0.23393,8.5656e+06,0.95174,-1.1337,1,0.731,-7.369,0,0
0.23562,8.5589e+06,0.95099,-1.1224,1,0.8041,-7.2959,0,0
0.2373,8.5522e+06,0.95024,-1.1112,1,0.8772,-7.2228,0,0
0.23899,8.5454e+06,0.94949,-1.1,1,0.9503,-7.1497,0,0
0.24098,8.5378e+06,0.94864,-1.0887,1,1.0234,-7.0766,0,0
0.24364,8.528e+06,0.94756,-1.0775,1,1.0965,-7.0035,0,0
0.2463,8.5183e+06,0.94648,-1.0662,1,1.1696,-6.9304,0,0
0.24897,8.5086e+06,0.9454,-1.055,1,1.2427,-6.8573,0,0
0.25163,8.4989e+06,0.94432,-1.0437,1,1.3158,-6.7842,0,0
0.25429,8.4892e+06,0.94324,-1.0325,1,1.3889,-6.7111,0,0
0.25696,8.4794e+06,0.94216,-1.0212,1,1.462,-6.638,0,0
0.26008,8.4661e+06,0.94067,-1.01,1,1.5351,-6.5649,0,0
0.26389,8.4473e+06,0.93858,-0.99874,1,1.6082,-6.4918,0,0
0.2677,8.4285e+06,0.9365,-0.98749,1,1.6813,-6.4187,0,0
0.27151,8.4097e+06,0.93441,-0.97625,1,1.7544,-6.3456,0,0
0.27583,8.391e+06,0.93233,-0.965,1,1.8275,-6.2725,0,0
0.2802,8.3723e+06,0.93026,-0.95375,1,1.9006,-6.1994,0,0
0.28456,8.3537e+06,0.92819,-0.94251,1,1.9737,-6.1263,0,0
0.28925,8.3335e+06,0.92594,-0.93126,1,2.0468,-6.0532,0,0
0.29436,8.3113e+06,0.92348,-0.92002,1,2.1199,-5.9801,0,0
0.29946,8.2891e+06,0.92101,-0.90877,1,2.193,-5.907,0,0
0.30457,8.267e+06,0.91855,-0.89752,1,2.2661,-5.8339,0,0
0.31041,8.2405e+06,0.91561,-0.88628,1,2.3392,-5.7608,0,0
0.3163,8.2138e+06,0.91264,-0.87503,1,2.4123,-5.6877,0,0
0.3222,8.187e+06,0.90967,-0.86378,1,2.4854,-5.6146,0,0
0.32844,8.1582e+06,0.90647,-0.85254,1,2.5585,-5.5415,0,0
0.33514,8.1266e+06,0.90296,-0.84129,1,2.6316,-5.4684,0,0
0.34185,8.0951e+06,0.89945,-0.83005,1,2.7047,-5.3953,0,0
0.34855,8.0635e+06,0.89594,-0.8188,1,2.7778,-5.3222,0,0
0.356,8.0269e+06,0.89188,-0.80755,1,2.8509,-5.2491,0,0
0.36354,7.9899e+06,0.88776,-0.79631,1,2.924,-5.176,0,0
0.37107,7.9528e+06,0.88364,-0.78506,1,2.9971,-5.1029,0,0
0.37893,7.9135e+06,0.87927,-0.77382,1,3.0702,-5.0298,0,0
0.38731,7.8705e+06,0.8745,-0.76257,1,3.1433,-4.9567,0,0
0.3957,7.8275e+06,0.86972,-0.75132,1,3.2164,-4.8836,0,0
0.40409,7.7845e+06,0.86494,-0.74008,1,3.2895,-4.8105,0,0
0.41319,7.7362e+06,0.85957,-0.72883,1,3.3626,-4.7374,0,0
0.42244,7.6868e+06,0.85408,-0.71758,1,3.4357,-4.6643,0,0
0.43169,7.6373e+06,0.84859,-0.70634,1,3.5088,-4.5912,0,0
0.44119,7.5862e+06,0.84291,-0.69509,1,3.5819,-4.5181,0,0
0.45133,7.5303e+06,0.83669,-0.68385,1,3.655,-4.445,0,0
0.46146,7.4743e+06,0.83048,-0.6726,1,3.7281,-4.3719,0,0
0.4716,7.4184e+06,0.82427,-0.66135,1,3.8012,-4.2988,0,0
0.48231,7.3587e+06,0.81763,-0.65011,1,3.8743,-4.2257,0,0
0.49326,7.2972e+06,0.8108,-0.63886,1,3.9474,-4.1526,0,0
0.50422,7.2358e+06,0.80398,-0.62762,1,4.0205,-4.0795,0,0
0.51527,7.1737e+06,0.79707,-0.61637,1,4.0936,-4.0064,0,0
0.52706,7.1066e+06,0.78962,-0.60512,1,4.1667,-3.9333,0,0
0.53885,7.0395e+06,0.78217,-0.59388,1,4.2398,-3.8602,0,0
0.55064,6.9725e+06,0.77472,-0.58263,1,4.3129,-3.7871,0,0
0.56288,6.9022e+06,0.76691,-0.57138,1,4.386,-3.714,0,0
0.57554,6.829e+06,0.75877,-0.56014,1,4.4591,-3.6409,0,0
0.58819,6.7557e+06,0.75064,-0.54889,1,4.5322,-3.5678,0,0
0.60084,6.6825e+06,0.7425,-0.53765,1,4.6053,-3.4947,0,0
0.61424,6.6042e+06,0.73381,-0.5264,1,4.6784,-3.4216,0,0
0.6277,6.5256e+06,0.72506,-0.51515,1,4.7515,-3.3485,0,0
0.64116,6.4469e+06,0.71632,-0.50391,1,4.8246,-3.2754,0,0
0.65484,6.3668e+06,0.70742,-0.49266,1,4.8977,-3.2023,0,0
0.66905,6.2835e+06,0.69817,-0.48142,1,4.9708,-3.1292,0,0
0.68326,6.2002e+06,0.68891,-0.47017,1,5.0439,-3.0561,0,0
0.69747,6.1169e+06,0.67965,-0.45892,1,5.117,-2.983,0,0
0.71216,6.0313e+06,0.67014,-0.44768,1,5.1901,-2.9099,0,0
0.72708,5.9447e+06,0.66052,-0.43643,1,5.2632,-2.8368,0,0
0.742,5.8581e+06,0.6509,-0.42518,1,5.3363,-2.7637,0,0
0.75694,5.7714e+06,0.64127,-0.41394,1,5.4094,-2.6906,0,0
0.77261,5.6824e+06,0.63138,-0.40269,1,5.4825,-2.6175,0,0
0.78828,5.5934e+06,0.62149,-0.39145,1,5.5556,-2.5444,0,0
0.80395,5.5044e+06,0.6116,-0.3802,1,5.6287,-2.4713,0,0
0.81999,5.4148e+06,0.60164,-0.36895,1,5.7018,-2.3982,0,0
0.83662,5.3241e+06,0.59156,-0.35771,1,5.7749,-2.3251,0,0
0.85325,5.2333e+06,0.58148,-0.34646,1,5.848,-2.252,0,0
0.86989,5.1426e+06,0.5714,-0.33522,1,5.9211,-2.1789,0,0
0.88688,5.0496e+06,0.56107,-0.32397,1,5.9942,-2.1058,0,0
0.90402,4.9557e+06,0.55063,-0.31272,1,6.0673,-2.0327,0,0
0.92116,4.8617e+06,0.54019,-0.30148,1,6.1404,-1.9596,0,0
0.93829,4.768e+06,0.52978,-0.29023,1,6.2135,-1.8865,0,0
0.95497,4.6841e+06,0.52045,-0.27898,1,6.2866,-1.8134,0,0
0.97166,4.6001e+06,0.51112,-0.26774,1,6.3597,-1.7403,0,0
0.98834,4.5161e+06,0.50179,-0.25649,1,6.4328,-1.6672,0,0
1.005,4.4321e+06,0.49246,-0.24525,1,6.5059,-1.5941,0,0
1.0217,4.3482e+06,0.48313,-0.234,1,6.579,-1.521,0,0
1.0384,4.2642e+06,0.4738,-0.22275,1,6.6521,-1.4479,0,0
1.0551,4.1802e+06,0.46447,-0.21151,1,6.7252,-1.3748,0,0
1.0726,4.0992e+06,0.45547,-0.20026,1,6.7983,-1.3017,0,0
1.0905,4.02e+06,0.44667,-0.18902,1,6.8714,-1.2286,0,0
1.1084,3.9408e+06,0.43787,-0.17777,1,6.9445,-1.1555,0,0
1.1263,3.8616e+06,0.42907,-0.16652,1,7.0176,-1.0824,0,0
1.1443,3.7824e+06,0.42027,-0.15528,1,7.0907,-1.0093,0,0
1.1622,3.7032e+06,0.41147,-0.14403,1,7.1638,-0.9362,0,0
1.1801,3.624e+06,0.40266,-0.13278,1,7.2369,-0.8631,0,0
1.1985,3.5443e+06,0.39381,-0.12154,1,7.31,-0.79,0,0
1.2185,3.4623e+06,0.3847,-0.11029,1,7.3831,-0.7169,0,0
1.2386,3.3804e+06,0.3756,-0.099046,1,7.4562,-0.6438,0,0
1.2587,3.2985e+06,0.36649,-0.0878,1,7.5293,-0.5707,0,0
1.279,3.2179e+06,0.35754,-0.076554,1,7.6024,-0.4976,0,0
1.2996,3.139e+06,0.34878,-0.065308,1,7.6755,-0.4245,0,0
1.3203,3.0601e+06,0.34002,-0.054062,1,7.7486,-0.3514,0,0
1.3409,2.9813e+06,0.33126,-0.042815,1,7.8217,-0.2783,0,0
1.3615,2.9067e+06,0.32297,-0.031569,1,7.8948,-0.2052,0,0
1.3821,2.8341e+06,0.31491,-0.020323,1,7.9679,-0.1321,0,0
1.4027,2.7616e+06,0.30684,-0.009077,1,8.041,-0.059,0,0
1.4233,2.689e+06,0.29878,0.0021692,1,8.1141,0.0141,0,0
1.4438,2.6219e+06,0.29133,0.013415,1,8.1872,0.0872,0,0
1.4644,2.5555e+06,0.28394,0.024661,1,8.2603,0.1603,0,0
1.4849,2.489e+06,0.27655,0.035908,1,8.3334,0.2334,0,0
1.5054,2.4232e+06,0.26924,0.047154,1,8.4065,0.3065,0,0
1.526,2.3621e+06,0.26245,0.0584,1,8.4796,0.3796,0,0
1.5466,2.301e+06,0.25566,0.069646,1,8.5527,0.4527,0,0
1.5672,2.2399e+06,0.24887,0.080892,1,8.6258,0.5258,0,0
1.5878,2.1804e+06,0.24227,0.092138,1,8.6989,0.5989,0,0
1.6085,2.1242e+06,0.23602,0.10338,1,8.772,0.672,0,0
1.6291,2.068e+06,0.22978,0.11463,1,8.8451,0.7451,0,0
1.6498,2.0118e+06,0.22354,0.12588,1,8.9182,0.8182,0,0
1.6704,1.9583e+06,0.21759,0.13712,1,8.9913,0.8913,0,0
1.691,1.9071e+06,0.2119,0.14837,1,9.0644,0.9644,0,0
1.7116,1.856e+06,0.20622,0.15962,1,9.1375,1.0375,0,0
1.7322,1.8048e+06,0.20053,0.17086,1,9.2106,1.1106,0,0
1.7524,1.7574e+06,0.19526,0.18211,1,9.2837,1.1837,0,0
1.7726,1.7116e+06,0.19017,0.19335,1,9.3568,1.2568,0,0
1.7927,1.6657e+06,0.18508,0.2046,1,9.4299,1.3299,0,0
1.8128,1.6199e+06,0.17999,0.21585,1,9.503,1.403,0,0
1.832,1.5795e+06,0.1755,0.22709,1,9.5761,1.4761,0,0
1.8511,1.5398e+06,0.17109,0.23834,1,9.6492,1.5492,0,0
1.8702,1.5002e+06,0.16669,0.24958,1,9.7223,1.6223,0,0
1.8892,1.4607e+06,0.1623,0.26083,1,9.7954,1.6954,0,0
1.9066,1.4275e+06,0.15861,0.27208,1,9.8685,1.7685,0,0
1.924,1.3944e+06,0.15493,0.28332,1,9.9416,1.8416,0,0
1.9413,1.3612e+06,0.15125,0.29457,1,10.015,1.9147,0,0
1.9583,1.3293e+06,0.14769,0.30582,1,10.088,1.9878,0,0
1.9731,1.303e+06,0.14477,0.31706,1,10.161,2.0609,0,0
1.9879,1.2767e+06,0.14186,0.32831,1,10.234,2.134,0,0
2.0028,1.2504e+06,0.13894,0.33955,1,10.307,2.2071,0,0
2.0164,1.2265e+06,0.13628,0.3508,1,10.38,2.2802,0,0
2.0272,1.2084e+06,0.13426,0.36205,1,10.453,2.3533,0,0
2.038,1.1902e+06,0.13225,0.37329,1,10.526,2.4264,0,0
2.0488,1.1721e+06,0.13023,0.38454,1,10.599,2.4995,0,0
2.0569,1.1575e+06,0.12861,0.39578,1,10.673,2.5726,0,0
2.0613,1.1479e+06,0.12755,0.40703,1,10.746,2.6457,0,0
2.0657,1.1384e+06,0.12648,0.41828,1,10.819,2.7188,0,0
2.07,1.1288e+06,0.12542,0.42952,1,10.892,2.7919,0,0
2.0724,1.1233e+06,0.12481,0.44077,1,10.965,2.865,0,0
2.0727,1.1218e+06,0.12465,0.45202,1,11.038,2.9381,0,0
2.073,1.1203e+06,0.12448,0.46326,1,11.111,3.0112,0,0
2.0734,1.1188e+06,0.12432,0.47451,1,11.184,3.0843,0,0
2.0728,1.1192e+06,0.12435,0.48575,1,11.257,3.1574,0,0
2.0716,1.1207e+06,0.12452,0.497,1,11.33,3.2305,0,0
2.0704,1.1222e+06,0.12469,0.50825,1,11.404,3.3036,0,0
2.0692,1.1237e+06,0.12486,0.51949,1,11.477,3.3767,0,0
2.0671,1.1264e+06,0.12516,0.53074,1,11.55,3.4498,0,0
2.0647,1.1297e+06,0.12552,0.54198,1,11.623,3.5229,0,0
2.0622,1.1329e+06,0.12588,0.55323,1,11.696,3.596,0,0
2.0598,1.1362e+06,0.12625,0.56448,1,11.769,3.6691,0,0
2.0586,1.1389e+06,0.12655,0.57572,1,11.842,3.7422,0,0
2.0578,1.1414e+06,0.12682,0.58697,1,11.915,3.8153,0,0
2.057,1.1439e+06,0.1271,0.59822,1,11.988,3.8884,0,0
2.0562,1.1464e+06,0.12738,0.60946,1,12.062,3.9615,0,0
2.0566,1.1463e+06,0.12736,0.62071,1,12.135,4.0346,0,0
2.0573,1.1453e+06,0.12726,0.63195,1,12.208,4.1077,0,0
2.0579,1.1444e+06,0.12716,0.6432,1,12.281,4.1808,0,0
2.0586,1.1435e+06,0.12706,0.65445,1,12.354,4.2539,0,0
2.061,1.1398e+06,0.12665,0.66569,1,12.427,4.327,0,0
2.0638,1.1355e+06,0.12617,0.67694,1,12.5,4.4001,0,0
2.0666,1.1312e+06,0.12569,0.68818,1,12.573,4.4732,0,0
2.0694,1.1269e+06,0.12522,0.69943,1,12.646,4.5463,0,0
2.0752,1.118e+06,0.12422,0.71068,1,12.719,4.6194,0,0
2.0816,1.1081e+06,0.12312,0.72192,1,12.792,4.6925,0,0
2.088,1.0982e+06,0.12202,0.73317,1,12.866,4.7656,0,0
2.0944,1.0883e+06,0.12093,0.74442,1,12.939,4.8387,0,0
2.1042,1.0733e+06,0.11925,0.75566,1,13.012,4.9118,0,0
2.1147,1.0572e+06,0.11747,0.76691,1,13.085,4.9849,0,0
2.1252,1.0412e+06,0.11568,0.77815,1,13.158,5.058,0,0
2.1357,1.0251e+06,0.1139,0.7894,1,13.231,5.1311,0,0
2.1485,1.0071e+06,0.1119,0.80065,1,13.304,5.2042,0,0
2.1618,9.886e+05,0.10984,0.81189,1,13.377,5.2773,0,0
2.1751,9.7013e+05,0.10779,0.82314,1,13.45,5.3504,0,0
2.1884,9.5167e+05,0.10574,0.83438,1,13.524,5.4235,0,0
2.2032,9.3293e+05,0.10366,0.84563,1,13.597,5.4966,0,0
2.2184,9.1413e+05,0.10157,0.85688,1,13.67,5.5697,0,0
2.2335,8.9533e+05,0.099481,0.86812,1,13.743,5.6428,0,0
2.2486,8.7653e+05,0.097393,0.87937,1,13.816,5.7159,0,0
2.2638,8.5773e+05,0.095304,0.89062,1,13.889,5.789,0,0
2.2789,8.3894e+05,0.093215,0.90186,1,13.962,5.8621,0,0
2.2941,8.2014e+05,0.091126,0.91311,1,14.035,5.9352,0,0
2.3092,8.0134e+05,0.089038,0.92435,1,14.108,6.0083,0,0
2.3257,7.83e+05,0.087,0.9356,1,14.181,6.0814,0,0
2.3426,7.6482e+05,0.08498,0.94685,1,14.254,6.1545,0,0
2.3595,7.4664e+05,0.08296,0.95809,1,14.328,6.2276,0,0
2.3764,7.2845e+05,0.080939,0.96934,1,14.401,6.3007,0,0
2.3933,7.1027e+05,0.078919,0.98058,1,14.474,6.3738,0,0
2.4102,6.9209e+05,0.076899,0.99183,1,14.547,6.4469,0,0
2.4272,6.7391e+05,0.074879,1.0031,1,14.62,6.52,0,0
2.4441,6.5573e+05,0.072859,1.0143,1,14.693,6.5931,0,0
2.4629,6.3761e+05,0.070845,1.0256,1,14.766,6.6662,0,0
2.4829,6.1952e+05,0.068836,1.0368,1,14.839,6.7393,0,0
2.503,6.0144e+05,0.066826,1.0481,1,14.912,6.8124,0,0
2.523,5.8335e+05,0.064817,1.0593,1,14.986,6.8855,0,0
2.5431,5.6527e+05,0.062807,1.0706,1,15.059,6.9586,0,0
2.5631,5.4718e+05,0.060798,1.0818,1,15.132,7.0317,0,0
2.5831,5.291e+05,0.058788,1.093,1,15.205,7.1048,0,0
2.6032,5.1101e+05,0.056779,1.1043,1,15.278,7.1779,0,0
2.6234,4.9442e+05,0.054936,1.1155,1,15.351,7.251,0,0
2.6439,4.7999e+05,0.053332,1.1268,1,15.424,7.3241,0,0
2.6645,4.6555e+05,0.051728,1.138,1,15.497,7.3972,0,0
2.685,4.5112e+05,0.050124,1.1493,1,15.57,7.4703,0,0
2.7055,4.3668e+05,0.04852,1.1605,1,15.643,7.5434,0,0
2.726,4.2225e+05,0.046916,1.1718,1,15.717,7.6165,0,0
2.7465,4.0781e+05,0.045312,1.183,1,15.79,7.6896,0,0
2.767,3.9338e+05,0.043708,1.1943,1,15.863,7.7627,0,0
2.7874,3.7955e+05,0.042172,1.2055,1,15.936,7.8358,0,0
2.8072,3.6888e+05,0.040987,1.2168,1,16.009,7.9089,0,0
2.827,3.5822e+05,0.039802,1.228,1,16.082,7.982,0,0
2.8467,3.4756e+05,0.038618,1.2392,1,16.155,8.0551,0,0
2.8665,3.369e+05,0.037433,1.2505,1,16.228,8.1282,0,0
2.8863,3.2623e+05,0.036248,1.2617,1,16.301,8.2013,0,0
2.906,3.1557e+05,0.035064,1.273,1,16.374,8.2744,0,0
2.9258,3.0491e+05,0.033879,1.2842,1,16.448,8.3475,0,0
2.9456,2.9425e+05,0.032694,1.2955,1,16.521,8.4206,0,0
2.9627,2.8645e+05,0.031828,1.3067,1,16.594,8.4937,0,0
2.9795,2.7914e+05,0.031015,1.318,1,16.667,8.5668,0,0
2.9963,2.7182e+05,0.030202,1.3292,1,16.74,8.6399,0,0
3.013,2.6451e+05,0.02939,1.3405,1,16.813,8.713,0,0
3.0298,2.5719e+05,0.028577,1.3517,1,16.886,8.7861,0,0
3.0466,2.4988e+05,0.027764,1.363,1,16.959,8.8592,0,0
3.0633,2.4256e+05,0.026951,1.3742,1,17.032,8.9323,0,0
3.0801,2.3525e+05,0.026138,1.3854,1,17.105,9.0054,0,0
3.0951,2.2935e+05,0.025484,1.3967,1,17.179,9.0785,0,0
3.1083,2.2489e+05,0.024988,1.4079,1,17.252,9.1516,0,0
3.1215,2.2043e+05,0.024492,1.4192,1,17.325,9.2247,0,0
3.1347,2.1597e+05,0.023996,1.4304,1,17.398,9.2978,0,0
3.1479,2.115e+05,0.0235,1.4417,1,17.471,9.3709,0,0
3.1611,2.0704e+05,0.023004,1.4529,1,17.544,9.444,0,0
3.1743,2.0258e+05,0.022509,1.4642,1,17.617,9.5171,0,0
3.1875,1.9811e+05,0.022013,1.4754,1,17.69,9.5902,0,0
3.2007,1.9372e+05,0.021525,1.4867,1,17.763,9.6633,0,0
3.2135,1.9008e+05,0.02112,1.4979,1,17.836,9.7364,0,0
3.2262,1.8644e+05,0.020716,1.5092,1,17.91,9.8095,0,0
3.239,1.828e+05,0.020311,1.5204,1,17.983,9.8826,0,0
3.2517,1.7916e+05,0.019906,1.5316,1,18.056,9.9557,0,0
3.2645,1.7552e+05,0.019502,1.5429,1,18.129,10.029,0,0
3.2773,1.7187e+05,0.019097,1.5541,1,18.202,10.102,0,0
3.29,1.6823e+05,0.018693,1.5654,1,18.275,10.175,0,0
3.3028,1.6459e+05,0.018288,1.5766,1,18.348,10.248,0,0
3.3161,1.6111e+05,0.017901,1.5879,1,18.421,10.321,0,0
3.3298,1.5773e+05,0.017525,1.5991,1,18.494,10.394,0,0
3.3435,1.5435e+05,0.01715,1.6104,1,18.567,10.467,0,0
3.3572,1.5097e+05,0.016774,1.6216,1,18.64,10.54,0,0
3.3707,1.4773e+05,0.016415,1.6329,1,18.714,10.614,0,0
3.3836,1.4478e+05,0.016087,1.6441,1,18.787,10.687,0,0
3.3965,1.4183e+05,0.015759,1.6554,1,18.86,10.76,0,0
3.4095,1.3888e+05,0.015431,1.6666,1,18.933,10.833,0,0
3.4223,1.3596e+05,0.015107,1.6778,1,19.006,10.906,0,0
3.4345,1.3345e+05,0.014828,1.6891,1,19.079,10.979,0,0
3.4466,1.3094e+05,0.014548,1.7003,1,19.152,11.052,0,0
3.4588,1.2842e+05,0.014269,1.7116,1,19.225,11.125,0,0
3.471,1.2591e+05,0.01399,1.7228,1,19.298,11.198,0,0
3.4832,1.2354e+05,0.013726,1.7341,1,19.372,11.271,0,0
3.4956,1.2121e+05,0.013467,1.7453,1,19.445,11.345,0,0
3.5079,1.1887e+05,0.013208,1.7566,1,19.518,11.418,0,0
3.5202,1.1654e+05,0.012949,1.7678,1,19.591,11.491,0,0
3.5332,1.1416e+05,0.012685,1.7791,1,19.664,11.564,0,0
3.547,1.1174e+05,0.012415,1.7903,1,19.737,11.637,0,0
3.5614,1.0923e+05,0.012137,1.8016,1,19.81,11.71,0,0
3.5781,1.0643e+05,0.011826,1.8128,1,19.883,11.783,0,0
3.6001,1.0278e+05,0.01142,1.824,1,19.956,11.856,0,0
3.6264,98530,0.010948,1.8353,1,20.029,11.929,0,0
0.3879,9.9705e+05,0.11078,1.8465,1,20.103,12.002,0,0
0.2654,1.2353e+06,0.13725,1.8578,1,20.176,12.076,0,0
0.19241,1.4488e+06,0.16098,1.869,1,20.249,12.149,0,0
0.18475,1.5474e+06,0.17193,1.8803,1,20.322,12.222,0,0
0.19049,1.6223e+06,0.18026,1.8915,1,20.395,12.295,0,0
0.19623,1.6973e+06,0.18859,1.9028,1,20.468,12.368,0,0
0.20197,1.7723e+06,0.19692,1.914,1,20.541,12.441,0,0
0.20771,1.8472e+06,0.20525,1.9253,1,20.614,12.514,0,0
0.21345,1.9222e+06,0.21358,1.9365,1,20.687,12.587,0,0
0.21919,1.9972e+06,0.22191,1.9478,1,20.76,12.66,0,0
0.22493,2.0721e+06,0.23024,1.959,1,20.833,12.733,0,0
0.23204,2.1384e+06,0.2376,1.9702,1,20.907,12.807,0,0
0.24896,2.1421e+06,0.23801,1.9815,1,20.98,12.88,0,0
0.26587,2.1457e+06,0.23842,1.9927,1,21.053,12.953,0,0
0.28279,2.1494e+06,0.23883,2.004,1,21.126,13.026,0,0
0.29971,2.1531e+06,0.23924,2.0152,1,21.199,13.099,0,0
0.31663,2.1568e+06,0.23965,2.0265,1,21.272,13.172,0,0
0.33355,2.1605e+06,0.24006,2.0377,1,21.345,13.245,0,0
0.35046,2.1642e+06,0.24047,2.049,1,21.418,13.318,0,0
0.36738,2.1679e+06,0.24088,2.0602,1,21.491,13.391,0,0
0.38405,2.1683e+06,0.24092,2.0715,1,21.564,13.464,0,0
0.40029,2.1628e+06,0.24031,2.0827,1,21.638,13.538,0,0
0.41653,2.1574e+06,0.23971,2.094,1,21.711,13.611,0,0
0.43276,2.1519e+06,0.2391,2.1052,1,21.784,13.684,0,0
0.449,2.1464e+06,0.23849,2.1164,1,21.857,13.757,0,0
0.46523,2.141e+06,0.23789,2.1277,1,21.93,13.83,0,0
0.48147,2.1355e+06,0.23728,2.1389,1,22.003,13.903,0,0
0.4977,2.1301e+06,0.23667,2.1502,1,22.076,13.976,0,0
0.51394,2.1246e+06,0.23607,2.1614,1,22.149,14.049,0,0
0.52813,2.1188e+06,0.23542,2.1727,1,22.222,14.122,0,0
0.54053,2.1126e+06,0.23473,2.1839,1,22.295,14.195,0,0
0.55293,2.1064e+06,0.23404,2.1952,1,22.369,14.269,0,0
0.56533,2.1002e+06,0.23336,2.2064,1,22.442,14.342,0,0
0.57773,2.094e+06,0.23267,2.2177,1,22.515,14.415,0,0
0.59013,2.0879e+06,0.23198,2.2289,1,22.588,14.488,0,0
0.60253,2.0817e+06,0.2313,2.2402,1,22.661,14.561,0,0
0.61493,2.0755e+06,0.23061,2.2514,1,22.734,14.634,0,0
0.62733,2.0693e+06,0.22992,2.2626,1,22.807,14.707,0,0
0.63741,2.0643e+06,0.22937,2.2739,1,22.88,14.78,0,0
0.64622,2.06e+06,0.22889,2.2851,1,22.953,14.853,0,0
0.65502,2.0557e+06,0.22841,2.2964,1,23.027,14.926,0,0
0.66382,2.0514e+06,0.22793,2.3076,1,23.1,15,0,0
0.67263,2.0471e+06,0.22745,2.3189,1,23.173,15.073,0,0
0.68143,2.0427e+06,0.22697,2.3301,1,23.246,15.146,0,0
0.69023,2.0384e+06,0.22649,2.3414,1,23.319,15.219,0,0
0.69904,2.0341e+06,0.22601,2.3526,1,23.392,15.292,0,0
0.70784,2.0298e+06,0.22553,2.3639,1,23.465,15.365,0,0
0.71537,2.0259e+06,0.2251,2.3751,1,23.538,15.438,0,0
0.72234,2.0222e+06,0.22469,2.3864,1,23.611,15.511,0,0
0.7293,2.0185e+06,0.22428,2.3976,1,23.684,15.584,0,0
0.73626,2.0148e+06,0.22387,2.4088,1,23.757,15.657,0,0
0.74323,2.0111e+06,0.22346,2.4201,1,23.831,15.731,0,0
0.75019,2.0074e+06,0.22305,2.4313,1,23.904,15.804,0,0
0.75716,2.0038e+06,0.22264,2.4426,1,23.977,15.877,0,0
0.76412,2.0001e+06,0.22223,2.4538,1,24.05,15.95,0,0
0.77109,1.9964e+06,0.22182,2.4651,1,24.123,16.023,0,0
0.77799,1.9918e+06,0.22131,2.4763,1,24.196,16.096,0,0
0.78486,1.9868e+06,0.22076,2.4876,1,24.269,16.169,0,0
0.79173,1.9818e+06,0.22021,2.4988,1,24.342,16.242,0,0
0.7986,1.9769e+06,0.21965,2.5101,1,24.415,16.315,0,0
0.80547,1.9719e+06,0.2191,2.5213,1,24.489,16.389,0,0
0.81234,1.9669e+06,0.21854,2.5326,1,24.562,16.462,0,0
0.81921,1.9619e+06,0.21799,2.5438,1,24.635,16.535,0,0
0.82608,1.9569e+06,0.21744,2.555,1,24.708,16.608,0,0
0.83295,1.952e+06,0.21688,2.5663,1,24.781,16.681,0,0
0.84034,1.945e+06,0.21611,2.5775,1,24.854,16.754,0,0
0.84807,1.9367e+06,0.21519,2.5888,1,24.927,16.827,0,0
0.85579,1.9285e+06,0.21428,2.6,1,25,16.9,0,0
0.86352,1.9202e+06,0.21336,2.6113,1,25.073,16.973,0,0
0.87124,1.912e+06,0.21244,2.6225,1,25.146,17.046,0,0
0.87897,1.9038e+06,0.21153,2.6338,1,25.219,17.119,0,0
0.88669,1.8955e+06,0.21061,2.645,1,25.293,17.193,0,0
0.89442,1.8873e+06,0.2097,2.6563,1,25.366,17.266,0,0
0.90214,1.879e+06,0.20878,2.6675,1,25.439,17.339,0,0
0.91049,1.8689e+06,0.20765,2.6788,1,25.512,17.412,0,0
0.91951,1.8566e+06,0.20629,2.69,1,25.585,17.485,0,0
0.92854,1.8443e+06,0.20492,2.7012,1,25.658,17.558,0,0
0.93756,1.832e+06,0.20356,2.7125,1,25.731,17.631,0,0
0.94659,1.8197e+06,0.20219,2.7237,1,25.804,17.704,0,0
0.95561,1.8074e+06,0.20082,2.735,1,25.877,17.777,0,0
0.96464,1.7951e+06,0.19946,2.7462,1,25.951,17.851,0,0
0.97367,1.7828e+06,0.19809,2.7575,1,26.024,17.924,0,0
0.98269,1.7706e+06,0.19673,2.7687,1,26.097,17.997,0,0
0.99208,1.7573e+06,0.19525,2.78,1,26.17,18.07,0,0
1.0024,1.7414e+06,0.19349,2.7912,1,26.243,18.143,0,0
1.0127,1.7256e+06,0.19173,2.8025,1,26.316,18.216,0,0
1.0231,1.7098e+06,0.18998,2.8137,1,26.389,18.289,0,0
1.0334,1.6939e+06,0.18822,2.825,1,26.462,18.362,0,0
1.0437,1.6781e+06,0.18646,2.8362,1,26.535,18.435,0,0
1.054,1.6623e+06,0.1847,2.8474,1,26.608,18.508,0,0
1.0644,1.6465e+06,0.18294,2.8587,1,26.681,18.581,0,0
1.0747,1.6306e+06,0.18118,2.8699,1,26.755,18.655,0,0
